#wavelength	surface flux
0.428837	0.17665539406477848
0.43312537	0.3614947343037279
0.43745662370000005	0.4483857039074328
0.4418311899370001	0.5550078072152524
0.44624950183637	0.6859045954630199
0.4507119968547338	0.8458934204653575
0.45521911682328114	1.0408400332364747
0.4597713079915139	1.2783665015708434
0.4643690210714291	1.5671813903565386
0.4690127112821433	1.9164336117671898
0.47370283839496474	2.3406662425887097
0.47843986677891437	2.852464389993377
0.48322426544670355	3.469027426654093
0.48805650810117057	4.2119970632384245
0.4929370731821824	5.103747610673764
0.49786644391400414	6.169854027341238
0.5028451083531442	7.449688810835473
0.5078735594366757	8.976024183343256
0.5129522950310424	10.789537094033928
0.5180818179813528	12.954458852570376
0.5232626361611664	15.516076418449138
0.5284952625227781	18.557060262651902
0.5337802151480058	22.13152251297183
0.5391180172994858	26.363410934847597
0.5445091974724807	31.3211629734294
0.5499542894472055	37.13720171702685
0.5554538323416777	43.88061803318644
0.5610083706650945	51.69765552723618
0.5666184543717453	60.44973326777229
0.5722846389154628	69.7892719234007
0.5780074853046174	77.12270384097785
0.5837875601576636	65.4943668428891
0.5896254357592402	10.311680010832724
0.5955216901168326	99.82804369996595
0.6014769070180009	147.67922927559513
0.607491676088181	181.70582444151498
0.6135665928490629	216.04588597335368
0.6197022587775535	253.7028795943786
0.625899281365329	296.34526893214604
0.6321582741789823	344.87868151718345
0.6384798569207721	400.16426029666
0.6448646554899798	463.33508664891235
0.6513133020448797	535.4721475821382
0.6578264350653285	617.5440348885718
0.6644046994159818	711.6086762086812
0.6710487464101416	817.1212758201638
0.677759233874243	939.2677141879133
0.6845368262129854	1076.3024123259784
0.6913821944751153	1229.3310399572258
0.6982960164198664	1406.0667732335462
0.7052789765840651	1603.992420758864
0.7123317663499058	1825.7832459710478
0.7194550840134049	2071.536237073852
0.7266496348535388	2343.1406069040495
0.7339161312020743	2661.4975028542403
0.741255292514095	3015.9135199774414
0.748667845439236	3404.2078965333462
0.7561545238936284	3793.267672008384
0.7637160691325647	3115.783528909978
0.7713532298238903	2769.424275978542
0.7790667621221293	5394.179048690857
0.7868574297433505	6170.275489443974
0.7947260040407841	6587.59341379698
0.8026732640811919	7781.991424671011
0.8106999967220039	8673.680884636275
0.8188069966892239	9712.113550114984
0.8269950666561161	10830.228671863832
0.8352650173226772	12045.634142227791
0.8436176674959041	13446.096566031689
0.852053844170863	14960.445899229911
0.8605743826125718	16607.861750427634
0.8691801264386976	18397.289215129575
0.8778719277030844	20334.9294026293
0.8866506469801153	22370.889384306498
0.8955171534499164	24488.759614698494
0.9044723249844157	27312.050704484263
0.9135170482342599	30041.165093568143
0.9226522187166025	32997.72650463121
0.9318787409037684	33736.24562682707
0.941197528312806	38436.52325280676
0.9506095035959342	41332.77404977479
0.9601155986318936	45061.35718914611
0.9697167546182125	50129.93066781168
0.9794139221643946	56157.108966415915
0.9892080613860387	61969.17183710072
0.9991001419998989	67998.05176851201
1.0090911434198981	74177.14479808796
1.019182054854097	80874.82191513308
1.0293738754026378	87301.68270442518
1.0396676141566643	95324.98151967459
1.050064290298231	103285.03143624433
1.0605649332012133	111870.1267669134
1.0711705825332256	120796.14095896992
1.0818822883585577	130624.97704020242
1.0927011112421434	140322.050259752
1.1036281223545648	141481.19944157527
1.1146644035781104	144288.89963242228
1.1258110476138916	155781.49114720937
1.1370691580900303	166311.17711369798
1.1484398496709307	184901.62892565274
1.1599242481676402	180088.4122808725
1.1715234906493166	215699.31334275746
1.1832387255558097	244780.2847838686
1.1950711128113678	265144.8019143896
1.2070218239394814	284313.90800699405
1.2190920421788762	304325.9195192607
1.2312829626006652	324606.5479081813
1.2435957922266716	346011.96920497075
1.2560317501489384	368700.84217643185
1.2685920676504279	391155.8808595565
1.281277988326932	414603.44798926904
1.2940907682102014	436886.20578792825
1.3070316758923035	459553.9218738684
1.3201019926512265	487183.28808105673
1.3333030125777388	448956.8563357172
1.3466360427035162	337943.2817330177
1.3601024031305513	192086.24779458658
1.373703427161857	382846.8213127783
1.3874404614334754	199344.11630569666
1.4013148660478103	300913.1016687131
1.4153280147082883	304076.26008683926
1.4294812948553712	382265.4864157662
1.443776107803925	514325.44791014947
1.4582138688819641	709881.1399973481
1.4727960075707838	718239.2512993088
1.4875239676464918	839346.4161736403
1.5023992073229566	891896.9212665315
1.5174231993961862	964173.3441884477
1.532597431390148	1029465.2331436544
1.5479234057040496	1083258.1959991967
1.5634026397610903	1129327.0087973967
1.579036666158701	1147503.5198672833
1.594827032820288	1231077.7242636054
1.610775303148491	1268833.5093336964
1.6268830561799759	1263737.6398286552
1.6431518867417756	1357899.1855689983
1.6595834056091934	1391473.1426924907
1.6761792396652853	1417898.052423674
1.6929410320619382	1399821.6134639375
1.7098704423825577	1455554.4564450125
1.7269691468063835	1568173.7480394244
1.744238838274447	1586746.8311886473
1.7616812266571917	1634186.6815014298
1.7792980389237634	1189345.837977114
1.7970910193130012	1126335.8595000512
1.815061929506131	644054.5612900384
1.8332125488011928	648322.6498717512
1.8515446742892046	862006.9433641057
1.8700601210320964	798791.3827877953
1.8887607222424174	1450306.5817725502
1.9076483294648416	606346.0135621118
1.92672481275949	736551.6905501988
1.9459920608870853	1170624.208446697
1.9654519814959561	1416195.437644327
1.9851065013109155	2080666.7119098918
2.0049575663240247	2271978.658985911
2.025007141987265	2514026.1387563446
2.0452572134071376	2688019.454408652
2.065709785541209	2773449.9463127824
2.086366883396621	2839411.5442116414
2.107230552230587	2888371.206483359
2.1283028577528933	2923438.558558546
2.1495858863304225	2892497.7733778153
2.1710817451937263	2927816.846655939
2.1927925626456637	2684571.60915686
2.2147204882721203	2444607.981893423
2.2368676931548412	1936599.2293350084
2.25923637008639	1919729.6768705624
2.281828733787254	1822301.8782528075
2.3046470211251266	1905120.2972722354
2.327693491336378	1352057.5053010338
2.3509704262497415	1388328.327277475
2.374480130512239	1165057.5856498163
2.3982249318173614	1698846.4322726196
2.4222071811355352	2273315.1634141104
2.4464292529468903	2300118.091084417
2.4708935454763594	1818009.0199625487
2.4956024809311232	1140433.500436929
2.5205585057404343	529033.3924613189
2.5457640907978387	826307.1449617845
2.5712217317058172	316038.0227087655
2.5969339490228753	280596.8750653183
2.622903288513104	746026.7214552901
2.6491323213982354	902337.9919409107
2.6756236446122177	133672.70272020815
2.7023798810583397	597628.8634669023
2.729403679868923	1328939.5906714483
2.7566977166676123	641608.3847951506
2.7842646938342885	536617.9307885227
2.812107340772631	636477.6276309618
2.8402284141803578	1163331.7864466032
2.8686306983221614	858716.8783284938
2.897317005305383	1133897.9486952052
2.926290175358437	2094293.2403815598
2.9555530771120213	2421978.0771771134
2.9851086078831415	2452510.68923406
3.014959693961973	2878089.542742252
3.0451092909015927	2703870.269730503
3.0755603838106085	2820332.2320592706
3.1063159876487147	2097467.6868417347
3.137379147525202	1504871.2028120307
3.168752939000454	1059289.30575588
3.200440468390459	848870.6157306853
3.232444873074363	582191.393197114
3.264769321805107	1648359.4593482276
3.297417015023158	1690157.5387581734
3.330391185173389	313094.12805397646
3.3636950970251234	1261868.5877493047
3.397332047995375	1050526.1829827903
3.4313053684753285	797533.9120894396
3.465618422160081	895570.9342517656
3.5002746063816828	1282190.5205042337
3.5352773524454997	1718886.057835575
3.570630125969955	2239209.2265627068
3.606336427229654	2822470.890146497
3.6423997915019504	3305289.681697243
3.67882378941697	3578712.118977616
3.7156120273111397	3498075.8237009123
3.7527681475842516	3538710.827636528
3.7902958290600934	3469568.5560044316
3.8281987873506953	3509139.465962098
3.8664807752242023	3421524.684964713
3.905145582976444	3374099.926421401
3.9441970388062084	3339284.011562816
3.983639009194271	3331142.506721965
4.023475399286213	3330225.1562773073
4.063710153279075	3273384.0322242794
4.1043472548118665	3341611.483152776
4.145390727359985	3428294.6199098537
4.186844634633585	3461139.8848527204
4.2287130809799205	3521119.2492737854
4.27100021178972	3525468.006355063
4.313710213907617	3490267.3604869707
4.356847316046694	3379620.3698093067
4.40041578920716	3053682.879466849
4.444419947099232	2603560.109093634
4.488864146570225	2263364.659662947
4.533752788035927	2041446.2782007998
4.579090315916286	2110813.659094779
4.624881219075449	2177763.694829381
4.671130031266204	2399393.080548083
4.717841331578866	2142010.265233841
4.765019744894654	2023000.2441982548
4.812669942343601	2133472.7848436255
4.8607966417670365	2263621.9480414134
4.9094046081847065	2184272.808885369
4.958498654266554	1799081.6403892168
5.008083640809219	2036620.0617235105
5.058164477217312	2384906.8810616247
5.108746121989485	2103843.842072618
5.15983358320938	1856543.6969620436
5.211431919041474	1305473.0909355152
5.263546238231889	1781096.8740821506
5.316181700614208	2034438.2096883017
5.36934351762035	1219230.8047565715
5.423036952796553	916724.884541634
5.4772673223245185	1014402.849714101
5.532039995547764	1121228.0871837111
5.587360395503242	839702.0424550961
5.643233999458275	686532.8271722943
5.6996663394528575	643460.3554486413
5.756663002847385	625286.7598221168
5.814229632875859	701491.1696287026
5.872371929204618	536884.0705714411
5.931095648496664	617618.7629479981
5.990406604981631	832027.6842500697
6.050310671031448	662788.0228308341
6.110813777741763	930857.732852304
6.17192191551918	724460.3223936957
6.233641134674372	1464389.46556253
6.295977546021115	1562374.3454089523
6.358937321481327	1092479.1183960494
6.42252669469614	415929.2586352415
6.486751961643101	381884.3993805376
6.551619481259532	459973.67237564275
6.617135676072128	386746.63504581765
6.683307032832849	614061.923999033
6.750140103161177	716203.2483320778
6.81764150419279	704219.2916096146
6.885817919234718	538952.1588369964
6.954676098427065	685385.8178181398
7.024222859411336	465260.0566267121
7.094465088005449	666720.9858221159
7.165409738885503	480522.85585363756
7.237063836274358	510016.39948350063
7.309434474637103	437835.60479040584
7.382528819383473	389243.1122948513
7.456354107577308	369473.30173961056
7.530917648653081	496819.2511370618
7.606226825139612	510066.8288456245
7.682289093391009	296685.6672980405
7.759111984324918	416778.44953441556
7.836703104168168	461129.3653550273
7.91507013520985	436958.4188945809
7.994220836561947	503090.474274068
8.074163044927568	492023.3655765705
8.154904675376844	517744.4807098152
8.23645372213061	574176.1176123039
8.318818259351918	624006.4286388947
8.402006441945437	640936.1995946136
8.486026506364892	733029.2104659581
8.57088677142854	762432.6711093036
8.656595639142825	796172.7870347456
8.743161595534254	810866.3434460548
8.830593211489598	822197.5460857463
8.918899143604493	804048.4815599647
9.00808813504054	792117.3304775493
9.098169016390944	790610.620248321
9.189150706554853	773715.4271514894
9.281042213620402	759338.2075055272
9.373852635756606	725695.0950634745
9.467591162114172	718585.9328917415
9.562267073735315	704283.419980362
9.657889744472667	679203.9422247001
9.754468641917395	664985.1978469974
9.852013328336568	626611.2979106944
9.950533461619933	624940.2373981975
10.050038796236134	604607.5924808054
10.150539184198495	588642.715765838
10.252044576040479	565860.0390205627
10.354565021800884	540921.0390360486
10.458110672018893	527895.3031843432
10.562691778739081	518055.709370369
10.668318696526473	504411.358619397
10.775001883491738	489209.02116810816
10.882751902326655	470223.60715212097
10.991579421349924	434692.0052673535
11.101495215563421	448001.3042755832
11.212510167719055	421510.8775845458
11.324635269396246	416743.06171751156
11.43788162209021	409083.8621970753
11.552260438311112	375519.68741952174
11.667783042694223	366307.4048369521
11.784460873121166	363337.9378590253
11.902305481852377	358580.9237279267
12.0213285366709	350330.27622240095
12.14154182203761	342243.6609939201
12.262957240257986	315729.37396967923
12.385586812660566	286720.920475671
12.509442680787172	286031.7756181415
12.634537107595044	296493.81756279455
12.760882478670995	285044.14799547393
12.888491303457704	276157.2935099454
13.01737621649228	252039.9773835291
13.147549978657205	255846.76546648625
13.279025478443776	221886.9298658566
13.411815733228213	207695.465541316
13.545933890560496	233687.32583036722
13.681393229466101	217079.7974147626
13.818207161760762	221606.79074927978
13.956389233378369	207671.09123067078
14.095953125712155	206332.79669610018
14.236912656969274	187966.81290817735
14.379281783538968	164868.65751745814
14.523074601374358	154877.60232603905
14.6683053473881	178385.7765072671
14.814988400861985	167404.41658894747
14.963138284870602	154217.97275909546
15.11276966771931	159208.64034531396
15.263897364396504	157571.1266477745
15.41653633804047	143987.29202773457
15.570701701420873	120328.72912737812
15.726408718435081	108515.35480906388
15.883672805619431	141733.08169598583
16.042509533675627	120453.11755211692
16.202934629012383	114102.24285905791
16.36496397530251	110472.06768048304
16.528613615055534	106248.01888164751
16.69389975120609	91954.60725739064
16.86083874871815	89481.70274207836
17.02944713620533	98385.5389059821
17.199741607567383	79611.58288136963
17.37173902364306	72860.73122398506
17.54545641387949	79603.29071090608
17.720910978018285	75177.26227676502
17.898120087798468	71184.65727960427
18.077101288676452	73333.90867325512
18.257872301563214	68315.91768035872
18.44045102457885	67357.24221034728
18.62485553482464	59525.50725931478
18.811104090172883	75873.33820407861
18.999215131074614	52369.8757694415
19.189207282385357	54103.57801828632
19.381099355209216	44609.86117719401
19.574910348761303	46446.73693013478
19.77065945224892	49365.54358810308
19.968366046771408	54576.001827699074
20.16804970723912	49793.04695242365
20.369730204311512	42090.925888588856
20.573427506354626	37562.710238614265
20.779161781418175	42691.255561225014
20.98695339923236	34040.78964782028
21.19682293322468	33999.08395287874
21.408791162556927	39781.28814887462
21.622879074182496	30949.87745041014
21.839107864924323	28546.948479134477
22.057498943573567	29333.647218338265
22.278073933009303	31740.808258822093
22.500854672339393	24830.553356753113
22.72586321906279	38567.57653573962
22.953121851253417	23048.786716090202
23.18265306976595	35440.77555973091
23.41447960046361	28970.282489164267
23.648624396468247	20265.974699572547
23.88511064043293	18454.31641122049
24.12396174683726	30925.844121722774
24.365201364305634	28862.308419174573
24.608853377948687	27308.034857527997
24.854941911728176	22914.28136633112
25.103491330845458	14931.777497878546
25.354526244153913	14991.743549774366
25.608071506595454	22532.478258061317
25.864152221661406	19660.98988110731
26.122793743878024	18461.16095645232
26.384021681316803	19585.284384148115
26.64786189812997	11762.903524210002
26.91434051711127	16367.028991529794
27.18348392228238	17578.418244315588
27.455318761505207	20203.212339795544
27.72987194912026	16459.033881731935
28.007170668611465	11006.019204395943
28.28724237529758	9705.817166661252
28.57011479905055	9616.232477159565
28.855815947041062	14094.846366389162
29.144374106511474	10384.694294759802
29.435817847576587	11399.729045859163
29.730176026052348	10171.678181385383
30.027477786312875	11735.690368257252
30.327752564176006	8360.894366502243
30.631030089817763	8978.186540826482
30.93734039071594	8088.138697351227
31.246713794623105	9415.792576865162
31.559180932569333	10264.80189364277
31.874772741895026	8249.429461921089
32.19352046931398	10009.226615084997
32.51545567400712	9853.904041656875
32.84061023074719	5722.551224361086
33.169016333054664	6200.0130926079455
33.500706496385206	6405.955288750214
33.83571356134906	9105.778831333562
34.17407069696255	6541.80353043878
34.51581140393218	5193.483572560234
34.8609695179715	5676.232329216425
35.209579213151216	5045.801918223407
35.56167500528272	4348.233441026011
35.917291755335555	4085.7848592759797
36.27646467288891	5381.037702493035
36.639229319617804	4975.384235284969
37.005621612813975	6044.223342505945
37.37567782894212	3993.3916878993773
37.74943460723154	4540.494128027055
38.12692895330385	5610.820297731176
38.5081982428369	5240.981354863465
38.893280225265265	3541.0183866201305
39.28221302751791	2918.6326656395318
39.6750351577931	4221.432807916234
40.071785509371026	2872.3879862478857
40.47250336446474	2870.49189473799
40.87722839810939	2865.067920525959
41.28600068209048	4012.443879175905
41.69886068891139	4026.4555905854495
42.1158492958005	3530.963127235893
42.53700778875851	3174.196580494014
42.962377866646094	2392.157746376012
43.392001645312554	2264.6113847659653
43.825921661765676	2039.8705384136797
44.264180878383335	2084.621871894836
44.70682268716717	2045.8706938606852
45.15389091403884	2142.144972248335
45.60542982317923	2578.2997558185534
46.06148412141103	2158.4577150891687
46.52209896262513	1754.4580529827192
46.98731995225138	1706.7826125386794
47.4571931517739	2298.4025168149674
47.93176508329164	1536.6180186149916
48.411082734124555	2013.5585772455024
48.8951935614658	1445.3197471227236
49.38414549708046	1297.2682857282416
49.877986952051266	1352.4355869520846
50.37676682157178	1304.2112497574997
50.88053448978749	1257.6630655718336
51.38933983468537	1212.724829237255
51.903233233032225	1169.35396148123
52.422265565362544	1127.4877405096374
52.946488221016175	1087.0784705718818
53.47595310322633	1048.0916418159788
54.010712634258596	1010.459791124787
54.550819760601186	974.1468027249231
55.0963279582072	939.106930456267
55.647291237789275	905.2946514371453
56.20376415016716	872.6745279429057
56.765801791668835	841.1982874226413
57.33345980958552	810.8331593678314
57.906794407681375	781.5393664552823
58.48586235175819	753.2769205804091
59.070720975275776	726.01645115548
59.661428185028534	699.7162608200056
60.25804246687882	674.3511996272111
60.860622891547614	649.882494503417
61.46922912046309	626.2827301086436
62.083921411667724	603.52316165699
62.7047606257844	581.5696892233573
63.331808232042235	560.402535750439
63.965126314362664	539.987595404053
64.60477757750628	520.3012605828482
65.25082535328136	501.31927810286084
65.90333360681416	483.01369646563256
66.56236694288232	465.3669451265696
67.22799061231113	448.3512028169795
67.90027051843424	431.946372798903
68.57927322361859	416.1314916127644
69.26506595585477	400.8841138205834
69.95771661541333	386.1873952274595
70.65729378156746	372.01854028514504
71.36386671938313	358.3605041011403
72.07750538657696	345.1947114838805
72.79828044044274	332.5030645495569
73.52626324484716	320.2707502287174
74.26152587729563	308.4790447542353
75.00414113606858	297.1149556290115
75.75418254742928	286.1619368284385
76.51172437290357	275.6054863408761
77.27684161663261	265.4333059715782
78.04961003279894	255.62940230696842
78.83010613312693	246.1836349681876
79.6184071944582	237.08117283911346
80.41459126640278	228.31032908777965
81.2187371790668	219.8600282963265
82.03092455085748	211.71725242954398
82.85123379636605	203.87248195220593
83.6797461343297	196.31345931724707
84.51654359567301	189.0302399163909
85.36170903162974	182.01372261677395
86.21532612194603	175.25292242467899
87.0774793831655	168.74048881976637
87.94825417699715	162.46587611658654
88.82773671876713	156.42167837504815
89.71601408595481	150.59930175468244
90.61317422681435	144.9902538861891
91.5193059690825	139.58840145088504
92.43449902877332	134.38427720505396
93.35884401906105	129.37238471154984
