#wavelength	surface flux
0.428837	1778.1383112741678
0.43312537	3405.1772084241893
0.43745662370000005	3916.731399897001
0.4418311899370001	4498.660719670021
0.44624950183637	5161.097129390166
0.4507119968547338	5898.896929689114
0.45521911682328114	6763.799117049655
0.4597713079915139	7727.922717635192
0.4643690210714291	8820.54923732247
0.4690127112821433	10034.026843403746
0.47370283839496474	11424.741857293957
0.47843986677891437	12939.87752852278
0.48322426544670355	14698.494064787536
0.48805650810117057	16694.304480313473
0.4929370731821824	18884.44533012053
0.49786644391400414	21276.628711806796
0.5028451083531442	24007.331762237303
0.5078735594366757	26889.38641489397
0.5129522950310424	29603.71902102221
0.5180818179813528	32048.764071728045
0.5232626361611664	38132.09319252936
0.5284952625227781	43027.417089157854
0.5337802151480058	48038.87374885985
0.5391180172994858	53761.096605012935
0.5445091974724807	59977.86308154332
0.5499542894472055	66755.93155209757
0.5554538323416777	74160.00231602576
0.5610083706650945	82317.82461578048
0.5666184543717453	90815.96527576644
0.5722846389154628	99704.28645901517
0.5780074853046174	106385.78558682669
0.5837875601576636	95264.60705194548
0.5896254357592402	15362.098068056637
0.5955216901168326	124905.38754537184
0.6014769070180009	159749.85908207504
0.607491676088181	181200.77679381685
0.6135665928490629	199601.49330896372
0.6197022587775535	221769.4043928995
0.625899281365329	244475.85834705934
0.6321582741789823	268143.80111027154
0.6384798569207721	294767.55132953764
0.6448646554899798	322834.3565638976
0.6513133020448797	352850.4140179322
0.6578264350653285	384707.2825223557
0.6644046994159818	419319.7820357281
0.6710487464101416	448463.23787312896
0.677759233874243	497285.88484404737
0.6845368262129854	540454.9032437283
0.6913821944751153	584599.3072183608
0.6982960164198664	636165.4596539639
0.7052789765840651	688917.5790027027
0.7123317663499058	744778.1436078028
0.7194550840134049	804180.6208652416
0.7266496348535388	867071.4565029704
0.7339161312020743	934988.0890025208
0.741255292514095	1006794.9145646059
0.748667845439236	1081432.011525518
0.7561545238936284	1151145.4992512537
0.7637160691325647	939682.2721226617
0.7713532298238903	777895.7723314511
0.7790667621221293	1416054.39315265
0.7868574297433505	1539536.914103566
0.7947260040407841	1571237.6180586067
0.8026732640811919	1766612.0598717849
0.8106999967220039	1883231.9246445398
0.8188069966892239	2011097.6249127577
0.8269950666561161	2144136.174208542
0.8352650173226772	2282453.4974549683
0.8436176674959041	2430642.7377022887
0.852053844170863	2584456.197221675
0.8605743826125718	2740248.997581317
0.8691801264386976	2904885.517753254
0.8778719277030844	3080594.3454256156
0.8866506469801153	3262274.928023574
0.8955171534499164	3442218.2248008163
0.9044723249844157	3652669.4850765583
0.9135170482342599	3854072.131171024
0.9226522187166025	4060958.917422121
0.9318787409037684	4162776.0420598798
0.941197528312806	4449549.803436062
0.9506095035959342	4657031.6538317185
0.9601155986318936	4871018.5503493985
0.9697167546182125	5127489.854610492
0.9794139221643946	5461318.326541546
0.9892080613860387	5748538.091025114
0.9991001419998989	6043149.439349663
1.0090911434198981	6341761.938654776
1.019182054854097	6662954.803543468
1.0293738754026378	6951513.465531876
1.0396676141566643	7290346.472522379
1.050064290298231	7615185.892522544
1.0605649332012133	7947527.7468197495
1.0711705825332256	8279834.0275315
1.0818822883585577	8633454.005567163
1.0927011112421434	8938492.861278243
1.1036281223545648	8938695.747587726
1.1146644035781104	9210821.904591182
1.1258110476138916	9679907.525870226
1.1370691580900303	9926363.820183458
1.1484398496709307	10489037.633916544
1.1599242481676402	10510885.330378663
1.1715234906493166	11149737.857791264
1.1832387255558097	11873655.065820439
1.1950711128113678	12376694.09654277
1.2070218239394814	12818870.593431693
1.2190920421788762	13291802.750520656
1.2312829626006652	13729875.133534849
1.2435957922266716	14172370.230599968
1.2560317501489384	14620689.574383335
1.2685920676504279	15040430.458363764
1.281277988326932	15457869.079923319
1.2940907682102014	15849675.296112282
1.3070316758923035	16242195.29673055
1.3201019926512265	16679847.506879415
1.3333030125777388	15415117.170131212
1.3466360427035162	13629615.46736626
1.3601024031305513	11970070.073415915
1.373703427161857	15388592.191313595
1.3874404614334754	12501212.603224592
1.4013148660478103	13597683.603360342
1.4153280147082883	13542565.391190015
1.4294812948553712	14835500.525009064
1.443776107803925	16334721.785516044
1.4582138688819641	18625058.93717541
1.4727960075707838	19076438.33361389
1.4875239676464918	20285141.928972866
1.5023992073229566	21144315.785484225
1.5174231993961862	21819346.74044568
1.532597431390148	22557551.440390788
1.5479234057040496	23215698.858479433
1.5634026397610903	23693000.997777373
1.579036666158701	24062258.006628774
1.594827032820288	24660094.191920936
1.610775303148491	25086494.575318113
1.6268830561799759	25502163.57480898
1.6431518867417756	25881851.20367838
1.6595834056091934	26203762.483257648
1.6761792396652853	26607180.406738367
1.6929410320619382	26813385.022719946
1.7098704423825577	26999730.804222032
1.7269691468063835	27095988.305602502
1.744238838274447	26414940.828350473
1.7616812266571917	26756661.510967184
1.7792980389237634	22378726.620688394
1.7970910193130012	21644085.80404868
1.815061929506131	18521122.223442286
1.8332125488011928	19588673.16995397
1.8515446742892046	19908551.62030037
1.8700601210320964	20740587.586114157
1.8887607222424174	24073869.28233345
1.9076483294648416	20221919.123070322
1.92672481275949	20057187.30895759
1.9459920608870853	20879820.73017047
1.9654519814959561	21878732.64507338
1.9851065013109155	25485048.256620437
2.0049575663240247	26311807.530067034
2.025007141987265	28072461.01223949
2.0452572134071376	29611825.156273525
2.065709785541209	30203107.49572447
2.086366883396621	30462838.63829793
2.107230552230587	30603500.626084454
2.1283028577528933	30877679.54288686
2.1495858863304225	30925818.327588223
2.1710817451937263	30928343.042062007
2.1927925626456637	30935329.256382067
2.2147204882721203	30882234.156911615
2.2368676931548412	30799576.30106111
2.25923637008639	30608102.144493856
2.281828733787254	30318999.554241814
2.3046470211251266	24348430.783123694
2.327693491336378	23901725.003202993
2.3509704262497415	26957999.523520462
2.374480130512239	25882716.233310416
2.3982249318173614	25797010.841739725
2.4222071811355352	25695039.297551583
2.4464292529468903	23430748.52702725
2.4708935454763594	19599963.032764245
2.4956024809311232	15654400.726726236
2.5205585057404343	11805346.630990481
2.5457640907978387	13200029.496705774
2.5712217317058172	9198170.161002709
2.5969339490228753	10843882.946951635
2.622903288513104	14153970.570616327
2.6491323213982354	15322663.347960103
2.6756236446122177	7411653.02516273
2.7023798810583397	11252603.13964696
2.729403679868923	14887953.73660738
2.7566977166676123	12834785.356503196
2.7842646938342885	11836821.043633439
2.812107340772631	11875909.492780346
2.8402284141803578	13431940.805228852
2.8686306983221614	11871413.440867007
2.897317005305383	13473668.989802903
2.926290175358437	16382340.404999873
2.9555530771120213	17026235.980042487
2.9851086078831415	16683223.846022677
3.014959693961973	18896311.13150564
3.0451092909015927	18725235.995016236
3.0755603838106085	20242967.955516066
3.1063159876487147	21390406.24339771
3.137379147525202	20900420.53311357
3.168752939000454	21811571.843100544
3.200440468390459	20886521.00062396
3.232444873074363	21280049.480034493
3.264769321805107	21276068.208224174
3.297417015023158	20547895.285251867
3.330391185173389	20156927.891098123
3.3636950970251234	20117977.55395801
3.397332047995375	19586275.809792258
3.4313053684753285	19129287.4960678
3.465618422160081	18106690.592970423
3.5002746063816828	17450346.32668516
3.5352773524454997	16924456.91635782
3.570630125969955	16439529.475891542
3.606336427229654	15710025.424479976
3.6423997915019504	15194803.548453458
3.67882378941697	14734968.783455627
3.7156120273111397	13700883.822889324
3.7527681475842516	13186507.06373984
3.7902958290600934	12441609.945555955
3.8281987873506953	12242665.162025714
3.8664807752242023	11537862.686765905
3.905145582976444	11300576.787330884
3.9441970388062084	11136079.28528022
3.983639009194271	11306226.98084752
4.023475399286213	11376233.307875661
4.063710153279075	11351585.132379228
4.1043472548118665	11711937.084148226
4.145390727359985	12006172.051548278
4.186844634633585	12194637.435052289
4.2287130809799205	12320028.869833792
4.27100021178972	11884587.343629735
4.313710213907617	10987478.327856446
4.356847316046694	9841693.145570349
4.40041578920716	8058027.5828087265
4.444419947099232	5734555.52215515
4.488864146570225	4136163.135618603
4.533752788035927	3421479.098103689
4.579090315916286	3736582.1824582405
4.624881219075449	4259242.2447707085
4.671130031266204	5616564.739488447
4.717841331578866	4583417.298910988
4.765019744894654	3712943.331416035
4.812669942343601	4302703.170173278
4.8607966417670365	5310590.3519543195
4.9094046081847065	4879015.4918516725
4.958498654266554	5282503.614068631
5.008083640809219	6062516.477831242
5.058164477217312	6213025.05464541
5.108746121989485	6773789.0399790695
5.15983358320938	6652041.025709516
5.211431919041474	6063279.857541983
5.263546238231889	6596872.245151093
5.316181700614208	6829781.210874002
5.36934351762035	5587648.968974797
5.423036952796553	4919736.797867847
5.4772673223245185	5343721.584344415
5.532039995547764	5321563.8282993045
5.587360395503242	4893793.628373346
5.643233999458275	4600221.237218128
5.6996663394528575	4155270.1000743695
5.756663002847385	4215317.949955746
5.814229632875859	4131553.5171771366
5.872371929204618	3851101.321840448
5.931095648496664	3804803.943187364
5.990406604981631	4507695.0023230165
6.050310671031448	3778855.721455022
6.110813777741763	4413116.419181494
6.17192191551918	3985180.1298310687
6.233641134674372	4811166.723797871
6.295977546021115	4820687.932641742
6.358937321481327	4407046.703646252
6.42252669469614	2892953.3816036982
6.486751961643101	2639478.7773638223
6.551619481259532	2804457.738343115
6.617135676072128	2323022.221381455
6.683307032832849	2864521.6432486116
6.750140103161177	2888701.498215484
6.81764150419279	2725604.540903193
6.885817919234718	2662748.538530599
6.954676098427065	2671196.389804697
7.024222859411336	2344914.8894118275
7.094465088005449	2617089.7978072343
7.165409738885503	2408858.0762114096
7.237063836274358	2439355.9861560916
7.309434474637103	2646697.3107552896
7.382528819383473	2491949.822216207
7.456354107577308	2125250.107944053
7.530917648653081	2541096.629811694
7.606226825139612	2047986.5108413417
7.682289093391009	2526902.697123338
7.759111984324918	2085894.3899352239
7.836703104168168	2302582.9106712067
7.91507013520985	2180999.9346345887
7.994220836561947	2324025.4507113486
8.074163044927568	2185442.200682865
8.154904675376844	2062614.8374804389
8.23645372213061	2136484.112491138
8.318818259351918	2086573.862896361
8.402006441945437	2106246.4454287468
8.486026506364892	2011731.6634648598
8.57088677142854	2043772.462084733
8.656595639142825	2005574.1690897415
8.743161595534254	1931028.8338761388
8.830593211489598	1917304.4001152937
8.918899143604493	1876467.6530505707
9.00808813504054	1808280.667566529
9.098169016390944	1766568.6888491404
9.189150706554853	1720871.8599067188
9.281042213620402	1666810.4607724997
9.373852635756606	1603208.2541698134
9.467591162114172	1545567.732565298
9.562267073735315	1514744.20322702
9.657889744472667	1459018.2978926415
9.754468641917395	1417162.2224780205
9.852013328336568	1342495.6446735081
9.950533461619933	1317147.656853003
10.050038796236134	1272767.3868614533
10.150539184198495	1231060.1653446164
10.252044576040479	1185008.9703622945
10.354565021800884	1127734.7724177632
10.458110672018893	1095096.796475382
10.562691778739081	1070770.7165669766
10.668318696526473	1038607.379925168
10.775001883491738	1002616.6574141205
10.882751902326655	961221.5339129703
10.991579421349924	899996.1617833503
11.101495215563421	905966.6716255295
11.212510167719055	875195.9737208831
11.324635269396246	840807.6526010975
11.43788162209021	817919.7325118706
11.552260438311112	774921.708261862
11.667783042694223	747627.4061091894
11.784460873121166	721382.0208139997
11.902305481852377	713126.1342154285
12.0213285366709	687352.014070813
12.14154182203761	666709.12319393
12.262957240257986	623697.1810949665
12.385586812660566	583081.6564592276
12.509442680787172	580687.094964103
12.634537107595044	570776.4687766923
12.760882478670995	548282.3864059242
12.888491303457704	539678.7777907937
13.01737621649228	491872.8303089512
13.147549978657205	485697.00061820145
13.279025478443776	448018.20349874825
13.411815733228213	433095.7793321056
13.545933890560496	433987.46843046363
13.681393229466101	416371.1027365486
13.818207161760762	408093.4711295381
13.956389233378369	389074.5309844585
14.095953125712155	385292.49353358475
14.236912656969274	354144.51362732233
14.379281783538968	330729.934836713
14.523074601374358	319437.0117177688
14.6683053473881	322392.2046259346
14.814988400861985	301807.4862867653
14.963138284870602	285133.5277685423
15.11276966771931	289819.8298273752
15.263897364396504	291234.6340660191
15.41653633804047	255784.78662291056
15.570701701420873	233374.07446103756
15.726408718435081	220781.43781594117
15.883672805619431	254449.15165530948
16.042509533675627	222442.287556406
16.202934629012383	211466.55920470002
16.36496397530251	197334.27432887923
16.528613615055534	197013.09020838636
16.69389975120609	177052.61631578632
16.86083874871815	187851.88244553772
17.02944713620533	180025.18406228715
17.199741607567383	158354.367915264
17.37173902364306	143791.9862415608
17.54545641387949	160003.11907602716
17.720910978018285	138670.19759828883
17.898120087798468	133391.38935862167
18.077101288676452	134616.9563814341
18.257872301563214	140845.3562937553
18.44045102457885	122708.52315119906
18.62485553482464	112856.65983524243
18.811104090172883	133137.12552334965
18.999215131074614	104936.00911049433
19.189207282385357	109047.116708356
19.381099355209216	92405.84823153022
19.574910348761303	91818.48151407612
19.77065945224892	99116.786827758
19.968366046771408	100224.57611411692
20.16804970723912	89612.5061976957
20.369730204311512	81180.43821776622
20.573427506354626	76022.27124301573
20.779161781418175	81025.57974572715
20.98695339923236	68428.96828380915
21.19682293322468	70425.11891319994
21.408791162556927	74658.67144356799
21.622879074182496	61182.62900650588
21.839107864924323	62462.01130905868
22.057498943573567	61161.85930537561
22.278073933009303	59457.34482362835
22.500854672339393	52075.16369213089
22.72586321906279	65879.03757345166
22.953121851253417	47821.32290258882
23.18265306976595	62418.25096206166
23.41447960046361	52971.78891369178
23.648624396468247	43620.81171354251
23.88511064043293	40535.1821797155
24.12396174683726	52385.11038481232
24.365201364305634	48796.02981925916
24.608853377948687	45647.3480892005
24.854941911728176	41298.43317704306
25.103491330845458	33157.08014396279
25.354526244153913	32281.860085055
25.608071506595454	37663.96566868374
25.864152221661406	38710.52932653662
26.122793743878024	34983.41704858418
26.384021681316803	34797.22332411896
26.64786189812997	26058.76268560411
26.91434051711127	31320.087545978786
27.18348392228238	31568.050577691585
27.455318761505207	33869.402999694954
27.72987194912026	29109.564084993795
28.007170668611465	23243.770319627667
28.28724237529758	21363.64858178073
28.57011479905055	20849.74994447174
28.855815947041062	25521.188623319827
29.144374106511474	21854.296253437242
29.435817847576587	20806.659066837914
29.730176026052348	21411.537797927285
30.027477786312875	20973.9689275499
30.327752564176006	17249.73409252665
30.631030089817763	17541.59656461852
30.93734039071594	16287.79110719368
31.246713794623105	16608.04481965312
31.559180932569333	18194.339559830052
31.874772741895026	15919.91591251263
32.19352046931398	16940.988369397768
32.51545567400712	17060.519368636647
32.84061023074719	12215.28744043941
33.169016333054664	12643.523590907
33.500706496385206	12809.474680831412
33.83571356134906	15083.280341681066
34.17407069696255	12266.332279565604
34.51581140393218	11078.845534304783
34.8609695179715	10552.296166340016
35.209579213151216	10006.048316320594
35.56167500528272	9351.61274984497
35.917291755335555	8847.055280287403
36.27646467288891	10518.562161155585
36.639229319617804	9298.133944639942
37.005621612813975	10063.692047768707
37.37567782894212	7859.545394260099
37.74943460723154	8514.123875756603
38.12692895330385	9248.453611987072
38.5081982428369	8781.487136904183
38.893280225265265	7071.534433218844
39.28221302751791	6266.648151581908
39.6750351577931	7413.009781927894
40.071785509371026	5894.296241101104
40.47250336446474	5946.306844313157
40.87722839810939	5755.192355423194
41.28600068209048	6575.414438431749
41.69886068891139	6382.716906063759
42.1158492958005	6075.65429492962
42.53700778875851	5761.282914232244
42.962377866646094	4670.602403579093
43.392001645312554	4454.579295909831
43.825921661765676	4318.220761969302
44.264180878383335	4353.102951208073
44.70682268716717	4154.961683365421
45.15389091403884	4206.844275682639
45.60542982317923	4355.046625608913
46.06148412141103	3922.728446532528
46.52209896262513	3481.8148457234424
46.98731995225138	3339.1436605273857
47.4571931517739	3876.149747695988
47.93176508329164	3240.0776087310173
48.411082734124555	3489.131617755535
48.8951935614658	2909.2576017248452
49.38414549708046	2696.510017483502
49.877986952051266	2748.8126267612897
50.37676682157178	2646.578552789474
50.88053448978749	2548.1046411710745
51.38933983468537	2453.2302560615312
51.903233233032225	2361.8536225663406
52.422265565362544	2273.822645089765
52.946488221016175	2189.025636775861
53.47595310322633	2107.3692205825823
54.010712634258596	2028.7115603841755
54.550819760601186	1952.9528111327827
55.0963279582072	1879.9969023531273
55.647291237789275	1809.7288949923372
56.20376415016716	1742.0685493159542
56.765801791668835	1676.9023331530434
57.33345980958552	1614.1493201589144
57.906794407681375	1553.7221765428721
58.48586235175819	1495.523786212115
59.070720975275776	1439.4857658867443
59.661428185028534	1385.5095380363132
60.25804246687882	1333.5397937342611
60.860622891547614	1283.491761820169
61.46922912046309	1235.2980584509337
62.083921411667724	1188.8965791254132
62.7047606257844	1144.2078667929025
63.331808232042235	1101.1894359048765
63.965126314362664	1059.7681938452567
64.60477757750628	1019.8849685480656
65.25082535328136	981.4895650272247
65.90333360681416	944.5195604115612
66.56236694288232	908.9375834779858
67.22799061231113	874.6809966248037
67.90027051843424	841.7059424428446
68.57927322361859	809.9675992703135
69.26506595585477	779.4123653830416
69.95771661541333	750.0091374237355
70.65729378156746	721.7012823021219
71.36386671938313	694.4501997284812
72.07750538657696	668.2172874113359
72.79828044044274	642.9565566488019
73.52626324484716	618.6445622015204
74.26152587729563	595.2346889954347
75.00414113606858	572.701367946352
75.75418254742928	551.0090434725029
76.51172437290357	530.1304822499382
77.27684161663261	510.03911518037114
78.04961003279894	490.7018975522523
78.83010613312693	472.0972753928229
79.6184071944582	454.1933073195644
80.41459126640278	436.96522232506067
81.2187371790668	420.38957059522
82.03092455085748	404.43753548320655
82.85123379636605	389.0881257804223
83.6797461343297	374.31457869574007
84.51654359567301	360.09533339917385
85.36170903162974	346.41127429164766
86.21532612194603	333.2392793584626
87.0774793831655	320.56397891215323
87.94825417699715	308.36515537193566
88.82773671876713	296.6268849028164
89.71601408595481	285.33226157490475
90.61317422681435	274.4633329262356
91.5193059690825	264.00802597779193
92.43449902877332	253.94637703571033
