#wavelength	surface flux
0.428837	2725.1862996638215
0.43312537	5255.424133193557
0.43745662370000005	6073.104152383792
0.4418311899370001	7027.50691969945
0.44624950183637	8108.833778882042
0.4507119968547338	9282.933408091712
0.45521911682328114	10687.299356161991
0.4597713079915139	12310.379132925073
0.4643690210714291	14100.387109907168
0.4690127112821433	16098.714955698002
0.47370283839496474	18352.438515550137
0.47843986677891437	20675.093593008067
0.48322426544670355	23532.01563910816
0.48805650810117057	26911.78222448993
0.4929370731821824	30421.947224328524
0.49786644391400414	34090.40656609136
0.5028451083531442	38131.907069629204
0.5078735594366757	41901.56872401905
0.5129522950310424	43956.44000444254
0.5180818179813528	45646.2040993003
0.5232626361611664	57637.23617951653
0.5284952625227781	63962.648156419666
0.5337802151480058	68937.76046716131
0.5391180172994858	73590.11909334386
0.5445091974724807	76688.86454742437
0.5499542894472055	77240.22602620682
0.5554538323416777	74032.80034426393
0.5610083706650945	65445.11157422751
0.5666184543717453	49811.778348750115
0.5722846389154628	29258.550000147883
0.5780074853046174	10470.691461505585
0.5837875601576636	1366.3735043747322
0.5896254357592402	27.310510010516584
0.5955216901168326	2656.350553033813
0.6014769070180009	18878.094636326627
0.607491676088181	56063.72220131874
0.6135665928490629	109257.62495066543
0.6197022587775535	170212.895338931
0.625899281365329	233721.10116578455
0.6321582741789823	297008.8366675689
0.6384798569207721	362605.08025972807
0.6448646554899798	427279.3324867393
0.6513133020448797	493904.72511611576
0.6578264350653285	559875.8285728467
0.6644046994159818	626269.4107109868
0.6710487464101416	503422.28340181505
0.677759233874243	777505.1758838015
0.6845368262129854	861119.8423627085
0.6913821944751153	932357.0947749685
0.6982960164198664	1027910.7736223501
0.7052789765840651	1113246.733273137
0.7123317663499058	1196197.4236622541
0.7194550840134049	1259979.5283067324
0.7266496348535388	1314287.6842434565
0.7339161312020743	1345708.5359999533
0.741255292514095	1310234.6031024319
0.748667845439236	1119091.9728009074
0.7561545238936284	646005.9883771447
0.7637160691325647	78822.09406262865
0.7713532298238903	59286.04390682466
0.7790667621221293	669364.9756396112
0.7868574297433505	1608774.6447989335
0.7947260040407841	1324378.2739385439
0.8026732640811919	2647997.7668057596
0.8106999967220039	2958166.2841330525
0.8188069966892239	3283283.684015696
0.8269950666561161	3622112.1067614174
0.8352650173226772	3901105.861896827
0.8436176674959041	4243864.359575241
0.852053844170863	4468283.359740714
0.8605743826125718	4823166.487063065
0.8691801264386976	5121667.627319447
0.8778719277030844	5451468.697183209
0.8866506469801153	5775773.30317021
0.8955171534499164	5902239.6047665
0.9044723249844157	6564064.701862583
0.9135170482342599	6921378.171594004
0.9226522187166025	7210341.087165461
0.9318787409037684	6076673.224326095
0.941197528312806	7184123.037248512
0.9506095035959342	7170802.135589684
0.9601155986318936	7250255.6776058655
0.9697167546182125	7809692.209925899
0.9794139221643946	9150201.231209466
0.9892080613860387	9938109.513175776
0.9991001419998989	10619472.289323816
1.0090911434198981	11277346.079890085
1.019182054854097	12046645.094459953
1.0293738754026378	12359247.91161896
1.0396676141566643	13254277.102088442
1.050064290298231	13772174.948115164
1.0605649332012133	14444149.484742925
1.0711705825332256	14971147.054277102
1.0818822883585577	15606291.423425153
1.0927011112421434	15614406.255104264
1.1036281223545648	11940934.379638474
1.1146644035781104	11367611.211385177
1.1258110476138916	12419515.465612888
1.1370691580900303	12278344.52646918
1.1484398496709307	14394272.486789623
1.1599242481676402	10815535.289392563
1.1715234906493166	14293209.743211806
1.1832387255558097	18941969.336091336
1.1950711128113678	20936003.39429765
1.2070218239394814	21904024.27708932
1.2190920421788762	23149243.80474957
1.2312829626006652	24150719.421093326
1.2435957922266716	25008988.54531983
1.2560317501489384	25629508.08396788
1.2685920676504279	26272496.45389461
1.281277988326932	26739313.463107955
1.2940907682102014	26621249.012050938
1.3070316758923035	26525655.182114273
1.3201019926512265	27207321.64699588
1.3333030125777388	14636067.869988024
1.3466360427035162	5401520.494395214
1.3601024031305513	2556138.99012997
1.373703427161857	7760134.266512061
1.3874404614334754	2071033.8295841762
1.4013148660478103	4106495.2098887586
1.4153280147082883	3555036.223485747
1.4294812948553712	5029600.681475495
1.443776107803925	7456117.05625592
1.4582138688819641	14569246.23149999
1.4727960075707838	14619260.619610453
1.4875239676464918	20320548.234129187
1.5023992073229566	23480093.251974516
1.5174231993961862	26966094.995588586
1.532597431390148	31189652.62723446
1.5479234057040496	34065754.56948194
1.5634026397610903	35771904.3045468
1.579036666158701	35686282.44800646
1.594827032820288	38252744.79831138
1.610775303148491	37919046.49878112
1.6268830561799759	35677654.29731811
1.6431518867417756	39320548.46492403
1.6595834056091934	38129590.0390221
1.6761792396652853	37076812.65309373
1.6929410320619382	33070601.492060453
1.7098704423825577	32978708.782694954
1.7269691468063835	34460089.808357425
1.744238838274447	27510328.699701708
1.7616812266571917	28305598.78062247
1.7792980389237634	8825507.274995025
1.7970910193130012	10859344.47003194
1.815061929506131	4853344.537199202
1.8332125488011928	4126458.617224237
1.8515446742892046	6008321.949679013
1.8700601210320964	4515676.638356233
1.8887607222424174	11751207.035046482
1.9076483294648416	3827426.2220671596
1.92672481275949	3321226.03969281
1.9459920608870853	5703652.617739923
1.9654519814959561	6617296.2346099885
1.9851065013109155	14759316.69140956
2.0049575663240247	18281871.292796675
2.025007141987265	25347663.49366362
2.0452572134071376	34973057.71617565
2.065709785541209	38867315.388060845
2.086366883396621	40107269.60547783
2.107230552230587	39303023.149729684
2.1283028577528933	39408901.40393636
2.1495858863304225	36188471.72577722
2.1710817451937263	34220295.674399756
2.1927925626456637	25381595.698456287
2.2147204882721203	17926510.161283128
2.2368676931548412	12096277.586343339
2.25923637008639	11644003.375345701
2.281828733787254	9317219.006956235
2.3046470211251266	8995035.42612193
2.327693491336378	4917842.637204289
2.3509704262497415	5513002.34159053
2.374480130512239	4322596.530497351
2.3982249318173614	6510459.130482654
2.4222071811355352	9346517.994297251
2.4464292529468903	7845872.394473677
2.4708935454763594	5232997.271006088
2.4956024809311232	2804937.388858327
2.5205585057404343	1441172.4993121817
2.5457640907978387	2274786.4976766454
2.5712217317058172	957675.6576186237
2.5969339490228753	885435.8101000781
2.622903288513104	2000472.7857063226
2.6491323213982354	2796298.636423016
2.6756236446122177	459718.2523188136
2.7023798810583397	1470283.7708325176
2.729403679868923	3299891.8957063355
2.7566977166676123	1877251.4374115113
2.7842646938342885	1472645.6745938861
2.812107340772631	1624722.3223418065
2.8402284141803578	2952300.5620792275
2.8686306983221614	1923446.817209527
2.897317005305383	2497185.3631979004
2.926290175358437	5185458.868103908
2.9555530771120213	5532858.313620669
2.9851086078831415	5549049.493970726
3.014959693961973	7140799.46597046
3.0451092909015927	6664734.055208225
3.0755603838106085	5997143.0248619635
3.1063159876487147	4023733.559165301
3.137379147525202	2790078.187985277
3.168752939000454	2082301.7533461065
3.200440468390459	1760824.619559758
3.232444873074363	1289226.9242099565
3.264769321805107	3328912.708566813
3.297417015023158	3599085.5526242615
3.330391185173389	725953.4818377211
3.3636950970251234	2524923.2035053875
3.397332047995375	2214175.6198262186
3.4313053684753285	1743770.7770690515
3.465618422160081	1853770.1238137444
3.5002746063816828	2441204.3178175204
3.5352773524454997	3265678.97157717
3.570630125969955	4180722.871198384
3.606336427229654	5780812.8491671095
3.6423997915019504	7782675.02908525
3.67882378941697	10489857.201204926
3.7156120273111397	12186723.441921894
3.7527681475842516	13930138.280024955
3.7902958290600934	14049164.401790354
3.8281987873506953	15746937.275042279
3.8664807752242023	15680459.130805515
3.905145582976444	15773159.496993525
3.9441970388062084	16139121.740747388
3.983639009194271	16126511.973701196
4.023475399286213	16324018.369352195
4.063710153279075	16217443.809812197
4.1043472548118665	16103819.268952956
4.145390727359985	15269481.74501856
4.186844634633585	14487514.52976327
4.2287130809799205	13674606.435864195
4.27100021178972	12637094.471091714
4.313710213907617	12089363.521369133
4.356847316046694	9885150.647738434
4.40041578920716	7494835.508984052
4.444419947099232	6015773.871924618
4.488864146570225	5106525.784687366
4.533752788035927	4506841.14602923
4.579090315916286	4728451.69511824
4.624881219075449	4868500.372908598
4.671130031266204	5458661.744080609
4.717841331578866	4721314.318660607
4.765019744894654	4389591.0178689305
4.812669942343601	4565111.188586093
4.8607966417670365	5094162.910661919
4.9094046081847065	4606175.1750427075
4.958498654266554	3466406.346857287
5.008083640809219	4116599.1231217645
5.058164477217312	4932889.470631521
5.108746121989485	4247060.959164682
5.15983358320938	3279319.043821746
5.211431919041474	2455999.8627121868
5.263546238231889	3175161.2255822183
5.316181700614208	3743233.852892097
5.36934351762035	2134600.5028192326
5.423036952796553	1604061.7427749874
5.4772673223245185	1821857.3592672537
5.532039995547764	1946452.4238138255
5.587360395503242	1481955.9107122328
5.643233999458275	1275834.0142791746
5.6996663394528575	1165578.6894784176
5.756663002847385	1170607.7414011576
5.814229632875859	1262967.9874501796
5.872371929204618	1024718.0019531774
5.931095648496664	1117138.0607522028
5.990406604981631	1473889.2481948163
6.050310671031448	1156558.3230322753
6.110813777741763	1764868.93342489
6.17192191551918	1273003.3749640784
6.233641134674372	2644781.7999104927
6.295977546021115	2821885.9263196397
6.358937321481327	1934665.6705814116
6.42252669469614	785028.017498297
6.486751961643101	709052.6368477194
6.551619481259532	824903.5742248006
6.617135676072128	681192.5313580224
6.683307032832849	1008925.5410664872
6.750140103161177	1120795.844296754
6.81764150419279	1078849.467326435
6.885817919234718	893475.6467684037
6.954676098427065	1082060.370670654
7.024222859411336	771512.3025647624
7.094465088005449	1009895.2967330042
7.165409738885503	776288.1912980302
7.237063836274358	793044.179391621
7.309434474637103	716242.2676771213
7.382528819383473	660692.092604576
7.456354107577308	618406.3481346242
7.530917648653081	806895.7910376199
7.606226825139612	779388.9453745611
7.682289093391009	512750.4396182263
7.759111984324918	649667.4783890649
7.836703104168168	735233.4288601252
7.91507013520985	702473.3086840779
7.994220836561947	797300.1332345671
8.074163044927568	757246.2354697328
8.154904675376844	770970.9835644049
8.23645372213061	841261.9378822098
8.318818259351918	903014.8811742913
8.402006441945437	924901.0597693358
8.486026506364892	1055945.7467816267
8.57088677142854	1117210.4522821964
8.656595639142825	1208698.0612399862
8.743161595534254	1262376.0987190816
8.830593211489598	1368237.1448184818
8.918899143604493	1378769.5973889811
9.00808813504054	1381556.6159394963
9.098169016390944	1478539.428622079
9.189150706554853	1513947.2146476072
9.281042213620402	1498699.8298628516
9.373852635756606	1396850.971289947
9.467591162114172	1414603.297880751
9.562267073735315	1558507.9054031016
9.657889744472667	1389574.4809408449
9.754468641917395	1514925.8648485166
9.852013328336568	1201509.6213638247
9.950533461619933	1403717.8305642807
10.050038796236134	1315342.6771410627
10.150539184198495	1341650.3649208038
10.252044576040479	1199973.4175754148
10.354565021800884	966929.9716147482
10.458110672018893	978248.6642526404
10.562691778739081	1076755.609393051
10.668318696526473	1068041.321049934
10.775001883491738	1015726.1940709432
10.882751902326655	892733.2645311035
10.991579421349924	681139.7589458814
11.101495215563421	927136.31897029
11.212510167719055	842143.8527853396
11.324635269396246	801473.0784664381
11.43788162209021	839553.4723742695
11.552260438311112	612678.2676297007
11.667783042694223	639761.1204250196
11.784460873121166	602372.7306819245
11.902305481852377	671122.7229744166
12.0213285366709	667679.6401443931
12.14154182203761	681863.3859602489
12.262957240257986	512179.85414757737
12.385586812660566	424668.95827503054
12.509442680787172	439401.7979756401
12.634537107595044	495636.3940514442
12.760882478670995	463345.26498171216
12.888491303457704	466146.69008187903
13.01737621649228	374534.3772418703
13.147549978657205	389418.6982345847
13.279025478443776	303286.80997925793
13.411815733228213	298030.6064686092
13.545933890560496	345885.34984952357
13.681393229466101	308121.8331477427
13.818207161760762	332754.3448716136
13.956389233378369	298011.86688690033
14.095953125712155	315023.8711518822
14.236912656969274	271010.1620136544
14.379281783538968	216754.780905901
14.523074601374358	206324.90281789648
14.6683053473881	249357.43257190209
14.814988400861985	223294.70049150955
14.963138284870602	201638.6643059579
15.11276966771931	224833.2430958383
15.263897364396504	244482.10445512526
15.41653633804047	185867.30702347122
15.570701701420873	151496.9785838318
15.726408718435081	138219.1365132785
15.883672805619431	219510.37039862055
16.042509533675627	159059.41789471696
16.202934629012383	148586.3713661612
16.36496397530251	137029.91438023176
16.528613615055534	134015.23355205022
16.69389975120609	116160.72366653358
16.86083874871815	117650.08224581418
17.02944713620533	130077.80683717864
17.199741607567383	99065.0167137429
17.37173902364306	90315.84075540262
17.54545641387949	101954.38134605657
17.720910978018285	91305.78154794802
17.898120087798468	86282.8900051228
18.077101288676452	90928.95436321956
18.257872301563214	87639.65974460902
18.44045102457885	82288.51297148559
18.62485553482464	71966.64855661655
18.811104090172883	107995.84664720054
18.999215131074614	65482.50774420951
19.189207282385357	68012.74084587327
19.381099355209216	54900.78870364361
19.574910348761303	56640.3759868808
19.77065945224892	61688.42383973081
19.968366046771408	73613.41454448602
20.16804970723912	61005.39446264796
20.369730204311512	51153.18411053453
20.573427506354626	46631.70650523995
20.779161781418175	52967.01541639593
20.98695339923236	41693.340848037755
21.19682293322468	42282.632135155836
21.408791162556927	53850.60103946288
21.622879074182496	37648.96836384853
21.839107864924323	36039.03354410333
22.057498943573567	36258.48221001939
22.278073933009303	38497.31833912315
22.500854672339393	30794.82189877124
22.72586321906279	51046.573018089104
22.953121851253417	28602.54904381784
23.18265306976595	46733.26191929397
23.41447960046361	36630.29856088722
23.648624396468247	25308.185294903524
23.88511064043293	23282.36995236407
24.12396174683726	39330.52559248948
24.365201364305634	35669.69599148946
24.608853377948687	33225.53962785539
24.854941911728176	27835.4112813266
25.103491330845458	18820.312948542825
25.354526244153913	18702.795339165663
25.608071506595454	26865.966071129125
25.864152221661406	25229.707319280576
26.122793743878024	22491.601276079382
26.384021681316803	23983.716494259825
26.64786189812997	14839.84786167305
26.91434051711127	20095.633658283823
27.18348392228238	21817.90985040138
27.455318761505207	27057.513566560963
27.72987194912026	20697.71633738445
28.007170668611465	13700.566766405938
28.28724237529758	12229.406123171899
28.57011479905055	12087.074757747345
28.855815947041062	16888.172932203495
29.144374106511474	12860.630063792347
29.435817847576587	13567.579625481038
29.730176026052348	12729.477362297932
30.027477786312875	14007.494357624115
30.327752564176006	10342.620393340849
30.631030089817763	10907.558468235593
30.93734039071594	9886.769607697002
31.246713794623105	11096.680649478058
31.559180932569333	12851.91070916893
31.874772741895026	9943.696713139774
32.19352046931398	12142.469157999023
32.51545567400712	12053.18633921083
32.84061023074719	7162.262698983904
33.169016333054664	7633.792207648636
33.500706496385206	7796.163675785176
33.83571356134906	11502.518990211154
34.17407069696255	7834.340600770549
34.51581140393218	6487.4136445936465
34.8609695179715	6730.306348034056
35.209579213151216	6127.821896135737
35.56167500528272	5444.958136901504
35.917291755335555	5137.414451614899
36.27646467288891	6620.463140743305
36.639229319617804	5923.964540304574
37.005621612813975	7580.428757707914
37.37567782894212	4844.8167571016675
37.74943460723154	5455.226707508001
38.12692895330385	6902.987435306609
38.5081982428369	6291.7915775809315
38.893280225265265	4303.109850996732
39.28221302751791	3661.643289568537
39.6750351577931	5112.59746182658
40.071785509371026	3545.451630108938
40.47250336446474	3557.143854006587
40.87722839810939	3504.6562601832243
41.28600068209048	4752.724189582548
41.69886068891139	4791.972506567117
42.1158492958005	4151.832123603329
42.53700778875851	3793.2691154592576
42.962377866646094	2891.0986429171826
43.392001645312554	2743.7584182107466
43.825921661765676	2542.8770460462824
44.264180878383335	2581.3728861892864
44.70682268716717	2513.5375931203066
45.15389091403884	2624.830548941416
45.60542982317923	3023.050736691743
46.06148412141103	2555.952598381087
46.52209896262513	2135.30508907078
46.98731995225138	2066.73557255306
47.4571931517739	2739.8722400851657
47.93176508329164	1908.0714438530747
48.411082734124555	2387.4547628899163
48.8951935614658	1775.7543815912618
49.38414549708046	1608.6433613496283
49.877986952051266	1663.751737982293
50.37676682157178	1603.5551741368554
50.88053448978749	1545.495053123197
51.38933983468537	1489.4827426721404
51.903233233032225	1435.4638472504175
52.422265565362544	1383.356297562962
52.946488221016175	1333.0943785433665
53.47595310322633	1284.6333270001928
54.010712634258596	1237.8891215141794
54.550819760601186	1192.815083195801
55.0963279582072	1149.3493237125301
55.647291237789275	1107.43046627354
56.20376415016716	1067.0172970611209
56.765801791668835	1028.045598854829
57.33345980958552	990.4690690778664
57.906794407681375	954.2458798116783
58.48586235175819	919.3171715201246
59.070720975275776	885.6478812805365
59.661428185028534	853.1862438410647
60.25804246687882	821.8939808444501
60.860622891547614	791.7279619900212
61.46922912046309	762.6496812046646
62.083921411667724	734.623055858004
62.7047606257844	707.6043034975856
63.331808232042235	681.568053351684
63.965126314362664	656.4712745980235
64.60477757750628	632.2829692426632
65.25082535328136	608.9727633946944
65.90333360681416	586.5046083517258
66.56236694288232	564.8568313944193
67.22799061231113	543.9932169608379
67.90027051843424	523.8883240134915
68.57927322361859	504.51609847175575
69.26506595585477	485.84744815848967
69.95771661541333	467.861936039395
70.65729378156746	450.5304762631994
71.36386671938313	433.8325114527554
72.07750538657696	417.7443687544157
72.79828044044274	402.2433047011618
73.52626324484716	387.3110003164745
74.26152587729563	372.92398002263445
75.00414113606858	359.0653476191229
75.75418254742928	345.7142615762684
76.51172437290357	332.852063679908
77.27684161663261	320.46370202232396
78.04961003279894	308.52848153129906
78.83010613312693	297.03389582278265
79.6184071944582	285.96113740079227
80.41459126640278	275.2956698901442
81.2187371790668	265.0241433562473
82.03092455085748	255.12984061798662
82.85123379636605	245.60176756309068
83.6797461343297	236.42433729292225
84.51654359567301	227.5857048515998
85.36170903162974	219.07415473937084
86.21532612194603	210.8764685856832
87.0774793831655	202.98301125985193
87.94825417699715	195.38112278470103
88.82773671876713	188.060921692349
89.71601408595481	181.01208708490233
90.61317422681435	174.22377311829848
91.5193059690825	167.68838628769595
92.43449902877332	161.39455455335542
93.35884401906105	155.33524967483126
