#wavelength	surface flux
0.428837	95.72203891036277
0.43312537	187.1996514045366
0.43745662370000005	220.46546802201016
0.4418311899370001	259.389801964997
0.44624950183637	304.6003871960004
0.4507119968547338	356.3992275116959
0.45521911682328114	417.7047775219348
0.4597713079915139	488.4758520885076
0.4643690210714291	569.9785478778249
0.4690127112821433	663.6280841308582
0.47370283839496474	771.7323351915925
0.47843986677891437	893.8254324171811
0.48322426544670355	1036.7421855788689
0.48805650810117057	1202.353705121674
0.4929370731821824	1388.9179095705465
0.49786644391400414	1599.6159228637136
0.5028451083531442	1840.2953723865348
0.5078735594366757	2105.5901379345396
0.5129522950310424	2379.44794798752
0.5180818179813528	2666.817488364518
0.5232626361611664	3162.6908728207577
0.5284952625227781	3620.0657940804613
0.5337802151480058	4109.534907594666
0.5391180172994858	4657.722436226404
0.5445091974724807	5251.229737797446
0.5499542894472055	5880.964066966397
0.5554538323416777	6524.585646281696
0.5610083706650945	7127.343817876616
0.5666184543717453	7532.979312504448
0.5722846389154628	7449.86571790667
0.5780074853046174	6095.287749631337
0.5837875601576636	2504.2940849844103
0.5896254357592402	106.4126641334746
0.5955216901168326	4123.653078153016
0.6014769070180009	10438.074302408912
0.607491676088181	15420.068443015496
0.6135665928490629	19493.133610577966
0.6197022587775535	23246.233935670127
0.625899281365329	26955.848292375875
0.6321582741789823	30763.49917758598
0.6384798569207721	34864.447531555496
0.6448646554899798	39214.66841142972
0.6513133020448797	43951.41532760229
0.6578264350653285	49035.90786051689
0.6644046994159818	54589.74489954272
0.6710487464101416	56467.90789988715
0.677759233874243	67356.64289373123
0.6845368262129854	74629.67687322824
0.6913821944751153	82195.4691936825
0.6982960164198664	90953.54822609288
0.7052789765840651	100170.4539069159
0.7123317663499058	110092.60807922849
0.7194550840134049	120305.8711150906
0.7266496348535388	131335.6380384507
0.7339161312020743	143183.0601121516
0.741255292514095	155050.14523173094
0.748667845439236	164548.60295527478
0.7561545238936284	161060.26092846447
0.7637160691325647	70916.35210829382
0.7713532298238903	57803.49807165077
0.7790667621221293	201311.47069163097
0.7868574297433505	254161.2717328379
0.7947260040407841	229914.31305588558
0.8026732640811919	314033.5316417625
0.8106999967220039	340662.09271012945
0.8188069966892239	371606.4701881142
0.8269950666561161	403134.77720563544
0.8352650173226772	435585.630614411
0.8436176674959041	472304.7991598637
0.852053844170863	509601.2819142018
0.8605743826125718	549218.0921649882
0.8691801264386976	591003.7954116211
0.8778719277030844	635179.2016853526
0.8866506469801153	681573.5448376271
0.8955171534499164	723937.3262024091
0.9044723249844157	785772.9354192495
0.9135170482342599	840587.7675795455
0.9226522187166025	895598.8382476801
0.9318787409037684	887418.8388498152
0.941197528312806	986726.4505016305
0.9506095035959342	1033711.6231429259
0.9601155986318936	1088784.0335288194
0.9697167546182125	1171473.3666738824
0.9794139221643946	1290277.1681649522
0.9892080613860387	1387217.6867916423
0.9991001419998989	1483786.5584480388
1.0090911434198981	1580218.676847494
1.019182054854097	1683584.5503250645
1.0293738754026378	1772337.4801046853
1.0396676141566643	1889789.9516346534
1.050064290298231	1995051.716759458
1.0605649332012133	2110484.955010027
1.0711705825332256	2223746.15352618
1.0818822883585577	2345617.3001349466
1.0927011112421434	2446765.437933365
1.1036281223545648	2346999.7627748693
1.1146644035781104	2380827.233384647
1.1258110476138916	2555049.4047062923
1.1370691580900303	2624849.425335987
1.1484398496709307	2878534.8488896526
1.1599242481676402	2734401.368438142
1.1715234906493166	3126326.7877255566
1.1832387255558097	3517759.722200067
1.1950711128113678	3745577.2740765833
1.2070218239394814	3927571.260931998
1.2190920421788762	4123755.165105852
1.2312829626006652	4314526.349882502
1.2435957922266716	4503891.280866069
1.2560317501489384	4688977.140473716
1.2685920676504279	4869746.355463581
1.281277988326932	5051259.689089901
1.2940907682102014	5203602.428668917
1.3070316758923035	5358620.523495395
1.3201019926512265	5564900.98882431
1.3333030125777388	4699272.116505588
1.3466360427035162	3389020.5646274826
1.3601024031305513	2270616.066859236
1.373703427161857	4047723.1963281343
1.3874404614334754	2271968.088019826
1.4013148660478103	3019891.5830440316
1.4153280147082883	2990525.090559991
1.4294812948553712	3626907.142054419
1.443776107803925	4529212.112436048
1.4582138688819641	6092500.699754846
1.4727960075707838	6228228.133802512
1.4875239676464918	7138849.644867006
1.5023992073229566	7577053.539561731
1.5174231993961862	8080826.826666056
1.532597431390148	8593302.623768602
1.5479234057040496	8960830.606953487
1.5634026397610903	9227174.35687348
1.579036666158701	9372873.910200782
1.594827032820288	9795422.848292394
1.610775303148491	9981097.51155187
1.6268830561799759	10043937.018636798
1.6431518867417756	10487796.799052386
1.6595834056091934	10601609.07235715
1.6761792396652853	10738585.719761718
1.6929410320619382	10623088.019206585
1.7098704423825577	10807571.278641365
1.7269691468063835	11153984.183209337
1.744238838274447	10688473.201339494
1.7616812266571917	10900075.876934938
1.7792980389237634	7258537.713549496
1.7970910193130012	7065965.117458786
1.815061929506131	4574299.853498994
1.8332125488011928	4730861.939699037
1.8515446742892046	5599179.972096458
1.8700601210320964	5465211.8318360355
1.8887607222424174	8467797.855947461
1.9076483294648416	4751063.821077827
1.92672481275949	4885143.272807393
1.9459920608870853	6265534.751552229
1.9654519814959561	7094065.538635318
1.9851065013109155	10305235.750209842
2.0049575663240247	11238770.746388275
2.025007141987265	12772740.101996306
2.0452572134071376	14069635.429560833
2.065709785541209	14566408.930896377
2.086366883396621	14806309.393587474
2.107230552230587	14861751.718377613
2.1283028577528933	15020578.804816501
2.1495858863304225	14850732.087858327
2.1710817451937263	14819432.70089309
2.1927925626456637	13897553.418713795
2.2147204882721203	12941796.241886182
2.2368676931548412	11513303.432103435
2.25923637008639	11387667.933709214
2.281828733787254	10723019.246430796
2.3046470211251266	9129235.624422522
2.327693491336378	7223099.2464461895
2.3509704262497415	8174813.5731070805
2.374480130512239	7063832.071413179
2.3982249318173614	8698921.016660158
2.4222071811355352	10075916.148272512
2.4464292529468903	9161892.51735742
2.4708935454763594	6828147.423306054
2.4956024809311232	4425882.513888913
2.5205585057404343	2513192.698568763
2.5457640907978387	3452332.3894015616
2.5712217317058172	1691952.3727771577
2.5969339490228753	1784989.1238189968
2.622903288513104	3356480.157859822
2.6491323213982354	3970686.3307845197
2.6756236446122177	979306.3953977904
2.7023798810583397	2562022.926884993
2.729403679868923	4722112.6057015145
2.7566977166676123	3131911.7386747724
2.7842646938342885	2654949.370425888
2.812107340772631	2821124.978728817
2.8402284141803578	4256506.878872894
2.8686306983221614	3139980.935677968
2.897317005305383	3930868.9539684155
2.926290175358437	6491087.155690572
2.9555530771120213	7035840.0279669585
2.9851086078831415	6943425.914903696
3.014959693961973	8469659.626007289
3.0451092909015927	8177363.682622483
3.0755603838106085	8132367.1342568295
3.1063159876487147	6272030.11634026
3.137379147525202	4558405.369369323
3.168752939000454	3562367.030961033
3.200440468390459	3023405.7046049214
3.232444873074363	2368662.812586511
3.264769321805107	5876213.706117954
3.297417015023158	6170238.171047682
3.330391185173389	1236429.8157587897
3.3636950970251234	4377050.009337256
3.397332047995375	3991870.9617564282
3.4313053684753285	3127451.2690128386
3.465618422160081	3238401.5762620703
3.5002746063816828	4131055.176894451
3.5352773524454997	5531414.612255568
3.570630125969955	6650084.302677334
3.606336427229654	8245159.408434015
3.6423997915019504	9171791.800612133
3.67882378941697	9690073.036678515
3.7156120273111397	9495810.55209689
3.7527681475842516	9392670.808022602
3.7902958290600934	9127956.129091986
3.8281987873506953	9008440.32943939
3.8664807752242023	8642841.425287357
3.905145582976444	8442376.947243145
3.9441970388062084	8299170.565477446
3.983639009194271	8257057.925403817
4.023475399286213	8255240.357812586
4.063710153279075	8179733.19472503
4.1043472548118665	8466981.535401125
4.145390727359985	8547925.142909385
4.186844634633585	8469690.054758048
4.2287130809799205	8338527.5448018685
4.27100021178972	8145938.788030497
4.313710213907617	8000055.563779782
4.356847316046694	7485710.304438249
4.40041578920716	6049022.459974216
4.444419947099232	4726217.77744523
4.488864146570225	3843565.328697232
4.533752788035927	3342234.1879178397
4.579090315916286	3523137.9989431137
4.624881219075449	3786778.136644918
4.671130031266204	4450159.192075232
4.717841331578866	3818582.9983365093
4.765019744894654	3385464.811856467
4.812669942343601	3679362.847068178
4.8607966417670365	4165591.1394896503
4.9094046081847065	3907855.0651655877
4.958498654266554	3545019.6378940586
5.008083640809219	4009690.187930747
5.058164477217312	4457500.932735055
5.108746121989485	4253093.327246936
5.15983358320938	3821682.188740371
5.211431919041474	2956703.506985175
5.263546238231889	3693281.395373123
5.316181700614208	4119557.4584929277
5.36934351762035	2709838.5966266273
5.423036952796553	2143113.238307409
5.4772673223245185	2421369.003784129
5.532039995547764	2530600.280221194
5.587360395503242	2046888.1901873918
5.643233999458275	1820048.807558186
5.6996663394528575	1643080.093766121
5.756663002847385	1670070.8657278481
5.814229632875859	1730733.5635577224
5.872371929204618	1480341.234808975
5.931095648496664	1550295.6518725483
5.990406604981631	2016656.6678114077
6.050310671031448	1584808.0708238347
6.110813777741763	2222890.642052011
6.17192191551918	1733808.4953936806
6.233641134674372	2964656.4744482157
6.295977546021115	3096674.19692809
6.358937321481327	2374867.7336476105
6.42252669469614	1118584.1413285367
6.486751961643101	1019947.8527078184
6.551619481259532	1156739.2836182497
6.617135676072128	953595.7228529436
6.683307032832849	1329025.3020275997
6.750140103161177	1429735.4214351934
6.81764150419279	1364545.8969206184
6.885817919234718	1196304.3604970686
6.954676098427065	1354268.2319054059
7.024222859411336	1037115.9745115299
7.094465088005449	1275804.5615412844
7.165409738885503	1031076.8048249251
7.237063836274358	1032062.8057025936
7.309434474637103	961091.3049012548
7.382528819383473	901896.9558835544
7.456354107577308	838591.2568230064
7.530917648653081	1070094.0992892678
7.606226825139612	995312.6525836762
7.682289093391009	711464.334186234
7.759111984324918	843513.154211254
7.836703104168168	959390.5720545101
7.91507013520985	923094.3184205593
7.994220836561947	1050046.082382704
8.074163044927568	973858.175373654
8.154904675376844	969855.3287514247
8.23645372213061	1048945.135458904
8.318818259351918	1112114.2517280902
8.402006441945437	1138375.5689781539
8.486026506364892	1236841.1155578706
8.57088677142854	1299403.7286054802
8.656595639142825	1351261.7783602802
8.743161595534254	1353662.1214718292
8.830593211489598	1391801.793201806
8.918899143604493	1375479.981736298
9.00808813504054	1339624.8307201671
9.098169016390944	1341751.673794323
9.189150706554853	1315941.7281746764
9.281042213620402	1287444.2351926495
9.373852635756606	1227214.7417373331
9.467591162114172	1202330.2302684586
9.562267073735315	1192305.750050263
9.657889744472667	1142096.458589718
9.754468641917395	1123182.2760642946
9.852013328336568	1038124.8718366965
9.950533461619933	1047844.5230167209
10.050038796236134	1011307.4613956915
10.150539184198495	983217.1079642124
10.252044576040479	939438.4239432439
10.354565021800884	881774.1119768557
10.458110672018893	860173.9197417654
10.562691778739081	854238.6098497425
10.668318696526473	831982.319346268
10.775001883491738	803047.9251625935
10.882751902326655	762236.124345351
10.991579421349924	680634.5614752924
11.101495215563421	729894.9622852918
11.212510167719055	698112.344533604
11.324635269396246	670807.607795726
11.43788162209021	660534.693503169
11.552260438311112	600934.659681563
11.667783042694223	577428.3917295076
11.784460873121166	566215.8168428956
11.902305481852377	570863.5497050221
12.0213285366709	554718.827237061
12.14154182203761	543145.8231837511
12.262957240257986	484774.65672039986
12.385586812660566	430743.0883574113
12.509442680787172	440441.1292683606
12.634537107595044	456382.18330125196
12.760882478670995	435939.9264168675
12.888491303457704	430942.08627997385
13.01737621649228	374684.32211271155
13.147549978657205	381491.0678094567
13.279025478443776	326226.8229530909
13.411815733228213	311134.5719176115
13.545933890560496	343465.83755397436
13.681393229466101	319164.39698216115
13.818207161760762	326952.0919740096
13.956389233378369	303533.29582078196
14.095953125712155	306141.8450065644
14.236912656969274	273130.1406095821
14.379281783538968	238538.02917570353
14.523074601374358	227031.63420264187
14.6683053473881	254017.2560522635
14.814988400861985	233545.7706299329
14.963138284870602	214609.9867500268
15.11276966771931	228087.96794522737
15.263897364396504	231760.6541379182
15.41653633804047	196220.08504503607
15.570701701420873	167024.83940713725
15.726408718435081	154606.78249642145
15.883672805619431	206709.26662436544
16.042509533675627	168139.64520747983
16.202934629012383	158443.7879625279
16.36496397530251	147154.3011128463
16.528613615055534	145394.80743738974
16.69389975120609	126939.8460217043
16.86083874871815	131434.4393503991
17.02944713620533	136432.52273681088
17.199741607567383	110486.76692582801
17.37173902364306	100748.63903973498
17.54545641387949	113606.9851471707
17.720910978018285	99951.97508763638
17.898120087798468	94919.03797838965
18.077101288676452	98699.41880627422
18.257872301563214	98620.40759520358
18.44045102457885	89615.31168309551
18.62485553482464	79652.83401523074
18.811104090172883	106537.74188016276
18.999215131074614	73232.0492266984
19.189207282385357	75981.21963953375
19.381099355209216	62362.72936989834
19.574910348761303	63528.42697910782
19.77065945224892	69249.67188824837
19.968366046771408	76817.42419615471
20.16804970723912	66080.23622404142
20.369730204311512	56961.350782126516
20.573427506354626	52599.99271696586
20.779161781418175	58164.639851399996
20.98695339923236	47004.02553389594
21.19682293322468	48042.67056551526
21.408791162556927	56080.54834400026
21.622879074182496	42322.91644161379
21.839107864924323	41475.77677985731
22.057498943573567	41227.82245382433
22.278073933009303	42512.40158376755
22.500854672339393	35210.42513545764
22.72586321906279	52819.16212820667
22.953121851253417	32519.174822424604
23.18265306976595	49360.86696893902
23.41447960046361	39565.895897008566
23.648624396468247	29149.5698112695
23.88511064043293	26933.782505137642
24.12396174683726	41361.62839979207
24.365201364305634	37897.748793216604
24.608853377948687	35341.99838343972
24.854941911728176	30353.343327107643
25.103491330845458	21889.667582055023
25.354526244153913	21582.282102967543
25.608071506595454	28786.68387300005
25.864152221661406	28150.159250518907
26.122793743878024	24970.604077498414
26.384021681316803	26031.46356465696
26.64786189812997	17286.506577957833
26.91434051711127	22423.928958555727
27.18348392228238	23579.106409237815
27.455318761505207	27713.53540514385
27.72987194912026	22072.49075875494
28.007170668611465	15750.032299364419
28.28724237529758	14217.935123658855
28.57011479905055	13987.144524644733
28.855815947041062	18732.865496536815
29.144374106511474	14743.727110172567
29.435817847576587	15032.704783585285
29.730176026052348	14558.463059996064
30.027477786312875	15356.570453513383
30.327752564176006	11819.975817305633
30.631030089817763	12281.343452922778
30.93734039071594	11234.765234483893
31.246713794623105	12174.637680760368
31.559180932569333	13781.723854995582
31.874772741895026	11154.68845968433
32.19352046931398	13090.128336189155
32.51545567400712	13118.066912420387
32.84061023074719	8285.694535778217
33.169016333054664	8717.3082762239
33.500706496385206	8833.977562130658
33.83571356134906	12080.654422774485
34.17407069696255	8804.327668612217
34.51581140393218	7473.21362952291
34.8609695179715	7518.282521653955
35.209579213151216	6952.037085967745
35.56167500528272	6300.8194501482185
35.917291755335555	5961.24587303412
36.27646467288891	7460.506309844383
36.639229319617804	6613.282907514234
37.005621612813975	7948.912767994097
37.37567782894212	5494.852412105049
37.74943460723154	6086.345860436447
38.12692895330385	7298.055464496634
38.5081982428369	6755.3756360557145
38.893280225265265	4921.51146294947
39.28221302751791	4246.55858394122
39.6750351577931	5579.642219734337
40.071785509371026	4066.765677278577
40.47250336446474	4080.148202103275
40.87722839810939	3990.6772021857964
41.28600068209048	5093.860533203798
41.69886068891139	5092.08329530067
42.1158492958005	4567.4317732392155
42.53700778875851	4192.541777433437
42.962377866646094	3275.584429889053
43.392001645312554	3115.351826763117
43.825921661765676	2933.7061877018405
44.264180878383335	2962.556653103277
44.70682268716717	2869.04298123026
45.15389091403884	2966.8947434152374
45.60542982317923	3282.740024155222
46.06148412141103	2837.128660316025
46.52209896262513	2427.9860102927637
46.98731995225138	2343.0630806924514
47.4571931517739	2969.1293254747843
47.93176508329164	2194.047102379338
48.411082734124555	2607.888799507845
48.8951935614658	2023.1747565454655
49.38414549708046	1851.3363245480862
49.877986952051266	1900.7962328793772
50.37676682157178	1831.4459821261182
50.88053448978749	1764.5909787647427
51.38933983468537	1700.1140797388398
51.903233233032225	1637.9615985883015
52.422265565362544	1578.029983630171
52.946488221016175	1520.2468808300896
53.47595310322633	1464.5521444750682
54.010712634258596	1410.854581612645
54.550819760601186	1359.0908434421551
55.0963279582072	1309.1961032078698
55.647291237789275	1261.092862578558
56.20376415016716	1214.734021436166
56.765801791668835	1170.0461024399176
57.33345980958552	1126.9790412865982
57.906794407681375	1085.4677831141012
58.48586235175819	1045.4598900974868
59.070720975275776	1006.9076238358667
59.661428185028534	969.7472762284623
60.25804246687882	933.9400375816019
60.860622891547614	899.4339680880398
61.46922912046309	866.1858556747674
62.083921411667724	834.1463812848087
62.7047606257844	803.2704791730002
63.331808232042235	773.5253229200674
63.965126314362664	744.8644215660347
64.60477757750628	717.2491153814519
65.25082535328136	690.6441613057453
65.90333360681416	665.0087138250465
66.56236694288232	640.3162914007895
67.22799061231113	616.5253879733382
67.90027051843424	593.6062575217123
68.57927322361859	571.5288773147315
69.26506595585477	550.2591381230856
69.95771661541333	529.7738051605742
70.65729378156746	510.03913637746217
71.36386671938313	491.0308294186532
72.07750538657696	472.7221799069602
72.79828044044274	455.08663315770093
73.52626324484716	438.1027363838805
74.26152587729563	421.7431318753463
75.00414113606858	405.9885522271024
75.75418254742928	390.8147888344945
76.51172437290357	376.20016300743185
77.27684161663261	362.12745700351115
78.04961003279894	348.57271925998805
78.83010613312693	335.52178924708153
79.6184071944582	322.95314125362074
80.41459126640278	310.8495161926768
81.2187371790668	299.19611022879826
82.03092455085748	287.97345391167016
82.85123379636605	277.1685706545025
83.6797461343297	266.7639818605969
84.51654359567301	256.74565674097045
85.36170903162974	247.10029816590662
86.21532612194603	237.8123043811958
87.0774793831655	228.8710990176863
87.94825417699715	220.26168673143576
88.82773671876713	211.97340734319738
89.71601408595481	203.99407907000605
90.61317422681435	196.3115124001262
91.5193059690825	188.9167879668008
92.43449902877332	181.7968007195641
93.35884401906105	174.943590179322
