#wavelength	surface flux
0.428837	2500.3092290290897
0.43312537	4822.81777649244
0.43745662370000005	5577.532010834024
0.4418311899370001	6456.342143909765
0.44624950183637	7452.99948695486
0.4507119968547338	8537.704177337533
0.45521911682328114	9842.915933429204
0.4597713079915139	11339.13681794433
0.4643690210714291	12999.924203665192
0.4690127112821433	14854.671475624755
0.47370283839496474	16952.56254905076
0.47843986677891437	19135.412678314417
0.48322426544670355	21807.50095738151
0.48805650810117057	24955.42648575891
0.4929370731821824	28249.36095247678
0.49786644391400414	31721.815569269795
0.5028451083531442	35583.951488927705
0.5078735594366757	39239.89679803664
0.5129522950310424	41375.45418357285
0.5180818179813528	43009.75338851384
0.5232626361611664	54476.53147521791
0.5284952625227781	60793.48419855462
0.5337802151480058	65985.16494078682
0.5391180172994858	71113.11761283912
0.5445091974724807	75042.06398825624
0.5499542894472055	76883.71048431951
0.5554538323416777	75438.52790213506
0.5610083706650945	68908.02949762996
0.5666184543717453	54855.38873944609
0.5722846389154628	34127.5464940825
0.5780074853046174	12849.694077174216
0.5837875601576636	1701.4421032002574
0.5896254357592402	32.63692796486932
0.5955216901168326	3292.168498630301
0.6014769070180009	22922.670861481463
0.607491676088181	65006.97114636679
0.6135665928490629	120704.68220583521
0.6197022587775535	180969.55451440293
0.625899281365329	241559.8652011691
0.6321582741789823	300637.3906466934
0.6384798569207721	361594.9847754244
0.6448646554899798	421380.6400824013
0.6513133020448797	483045.09849578125
0.6578264350653285	544203.4442829841
0.6644046994159818	606395.4462913229
0.6710487464101416	497964.582716191
0.677759233874243	748126.1076781577
0.6845368262129854	826547.3856944309
0.6913821944751153	894206.4493098276
0.6982960164198664	985190.355216068
0.7052789765840651	1067583.06394188
0.7123317663499058	1149026.1555404328
0.7194550840134049	1214411.3240650767
0.7266496348535388	1273947.8187206113
0.7339161312020743	1316459.21719502
0.741255292514095	1303538.904373307
0.748667845439236	1149954.0248985908
0.7561545238936284	704173.6543581086
0.7637160691325647	91578.4597324507
0.7713532298238903	68938.77567845548
0.7790667621221293	736911.009819776
0.7868574297433505	1653614.5322395496
0.7947260040407841	1344883.3912227533
0.8026732640811919	2588018.2681310456
0.8106999967220039	2863171.2574052094
0.8188069966892239	3163268.894634713
0.8269950666561161	3468634.2761392095
0.8352650173226772	3726557.51671396
0.8436176674959041	4044118.7038475857
0.852053844170863	4269911.736289878
0.8605743826125718	4587532.1256099725
0.8691801264386976	4870536.960136526
0.8778719277030844	5179798.559851174
0.8866506469801153	5488992.655202855
0.8955171534499164	5623470.812102603
0.9044723249844157	6231014.412121869
0.9135170482342599	6570750.846551317
0.9226522187166025	6848627.482336624
0.9318787409037684	5819804.287013076
0.941197528312806	6854926.240052352
0.9506095035959342	6856853.928044
0.9601155986318936	6944970.660600448
0.9697167546182125	7476288.047175144
0.9794139221643946	8724888.10596856
0.9892080613860387	9466074.031695742
0.9991001419998989	10114835.484783646
1.0090911434198981	10737091.098705996
1.019182054854097	11463865.884837572
1.0293738754026378	11760900.247120367
1.0396676141566643	12616046.036984228
1.050064290298231	13113181.920044437
1.0605649332012133	13757020.422131248
1.0711705825332256	14266551.566468323
1.0818822883585577	14876687.957551304
1.0927011112421434	14915121.778610764
1.1036281223545648	11541502.823036104
1.1146644035781104	11018515.69209237
1.1258110476138916	12037113.546359338
1.1370691580900303	11913693.608722406
1.1484398496709307	13918831.010941148
1.1599242481676402	10610566.73318102
1.1715234906493166	13905118.495584808
1.1832387255558097	18229036.002674818
1.1950711128113678	20089929.77057357
1.2070218239394814	21006474.256585386
1.2190920421788762	22187984.908605713
1.2312829626006652	23142461.53982352
1.2435957922266716	23972110.833579294
1.2560317501489384	24573645.291827
1.2685920676504279	25194357.563375823
1.281277988326932	25664644.858094588
1.2940907682102014	25590806.603912387
1.3070316758923035	25540705.06308433
1.3201019926512265	26208360.88294288
1.3333030125777388	14435599.4250922
1.3466360427035162	5522255.9449104965
1.3601024031305513	2658353.7050136616
1.373703427161857	7867233.436980313
1.3874404614334754	2174208.7862969125
1.4013148660478103	4219455.385442497
1.4153280147082883	3678173.9818807566
1.4294812948553712	5166643.06226225
1.443776107803925	7587638.695778628
1.4582138688819641	14551340.35343005
1.4727960075707838	14623648.812592527
1.4875239676464918	20118973.26248309
1.5023992073229566	23133308.705367155
1.5174231993961862	26445625.37783525
1.532597431390148	30427599.25932424
1.5479234057040496	33089262.31470226
1.5634026397610903	34634361.58789377
1.579036666158701	34521234.20032721
1.594827032820288	37088742.99616287
1.610775303148491	36882917.15609782
1.6268830561799759	35077082.59880006
1.6431518867417756	38402876.142358966
1.6595834056091934	37381593.69718505
1.6761792396652853	36562908.33352427
1.6929410320619382	32955344.041258898
1.7098704423825577	32845632.140365075
1.7269691468063835	34154983.806611046
1.744238838274447	27457627.457452215
1.7616812266571917	28249631.469984576
1.7792980389237634	9099418.080602625
1.7970910193130012	11040892.85817444
1.815061929506131	5008395.504204983
1.8332125488011928	4302776.928571168
1.8515446742892046	6195869.588563877
1.8700601210320964	4726497.960251041
1.8887607222424174	11996997.067402989
1.9076483294648416	4014342.138427105
1.92672481275949	3502267.293674384
1.9459920608870853	5917637.986346176
1.9654519814959561	6854204.630831445
1.9851065013109155	15030243.502132004
2.0049575663240247	18516322.663762726
2.025007141987265	25503456.25483433
2.0452572134071376	34831038.98928113
2.065709785541209	38608564.0175834
2.086366883396621	39876723.683738716
2.107230552230587	39191390.680429175
2.1283028577528933	39472373.86561046
2.1495858863304225	36567185.01846368
2.1710817451937263	34809369.675663166
2.1927925626456637	26538684.660848483
2.2147204882721203	19330525.21483955
2.2368676931548412	13341020.174491344
2.25923637008639	12851633.789095325
2.281828733787254	10344333.99181339
2.3046470211251266	9194849.319703218
2.327693491336378	5191438.318722419
2.3509704262497415	5922726.664807289
2.374480130512239	4644065.172220801
2.3982249318173614	6918510.185843413
2.4222071811355352	9765941.992852988
2.4464292529468903	8174781.463937255
2.4708935454763594	5448085.130023282
2.4956024809311232	2915907.2018970815
2.5205585057404343	1503262.5990587808
2.5457640907978387	2367118.4009527895
2.5712217317058172	1003298.9435868617
2.5969339490228753	930495.8479476823
2.622903288513104	2085071.4035275467
2.6491323213982354	2903265.7509839325
2.6756236446122177	484919.7965483447
2.7023798810583397	1527690.789453545
2.729403679868923	3412204.824239562
2.7566977166676123	1961936.4267779195
2.7842646938342885	1537075.4586893339
2.812107340772631	1691388.424035058
2.8402284141803578	3058862.2455534465
2.8686306983221614	1990134.3052977398
2.897317005305383	2581015.167319375
2.926290175358437	5337230.715930886
2.9555530771120213	5690693.093382452
2.9851086078831415	5699359.468729478
3.014959693961973	7346416.685787122
3.0451092909015927	6884417.789388869
3.0755603838106085	6237158.3497969
3.1063159876487147	4177523.5721462737
3.137379147525202	2880589.0733562047
3.168752939000454	2151881.818640351
3.200440468390459	1818873.87502871
3.232444873074363	1338141.1688856361
3.264769321805107	3474915.735105172
3.297417015023158	3770529.773872764
3.330391185173389	753364.1571545027
3.3636950970251234	2614883.3860241435
3.397332047995375	2305929.630080121
3.4313053684753285	1808791.463499538
3.465618422160081	1918261.9034808388
3.5002746063816828	2521716.359502378
3.5352773524454997	3387718.3191020284
3.570630125969955	4355676.420459792
3.606336427229654	6095357.507692199
3.6423997915019504	8247411.7931277575
3.67882378941697	11072392.255591836
3.7156120273111397	12717659.554430878
3.7527681475842516	14311419.609260648
3.7902958290600934	14356485.208513886
3.8281987873506953	15834141.868056836
3.8664807752242023	15651165.099753765
3.905145582976444	15669570.855510008
3.9441970388062084	15941167.430864856
3.983639009194271	15924467.067289352
4.023475399286213	16123368.597969415
4.063710153279075	16009190.086661728
4.1043472548118665	16022934.100828689
4.145390727359985	15254203.552091498
4.186844634633585	14498555.37884338
4.2287130809799205	13722716.82287082
4.27100021178972	12707985.084572667
4.313710213907617	12155458.403373329
4.356847316046694	9826058.99712091
4.40041578920716	7277203.228391718
4.444419947099232	5738979.11014155
4.488864146570225	4815601.398364417
4.533752788035927	4232329.64953418
4.579090315916286	4451496.739411759
4.624881219075449	4624923.208668357
4.671130031266204	5247130.027692837
4.717841331578866	4529896.306660113
4.765019744894654	4155615.4853252415
4.812669942343601	4367794.652430427
4.8607966417670365	4937576.133071021
4.9094046081847065	4452420.557558622
4.958498654266554	3448096.1050189193
5.008083640809219	4084570.2934625694
5.058164477217312	4871697.595021471
5.108746121989485	4253732.300158815
5.15983358320938	3331808.565450685
5.211431919041474	2499420.8416312733
5.263546238231889	3230921.4125999007
5.316181700614208	3807849.8551062695
5.36934351762035	2179021.7896314347
5.423036952796553	1639744.6429966083
5.4772673223245185	1863716.8569145293
5.532039995547764	1987731.8828201324
5.587360395503242	1516579.702634481
5.643233999458275	1308692.940666938
5.6996663394528575	1194713.4608677658
5.756663002847385	1201098.1029655712
5.814229632875859	1292969.2273941133
5.872371929204618	1052610.8741472617
5.931095648496664	1144597.6125477238
5.990406604981631	1508349.1080388622
6.050310671031448	1183395.1009144352
6.110813777741763	1826522.0767665072
6.17192191551918	1303202.7134153517
6.233641134674372	2696265.0891623315
6.295977546021115	2877653.462237901
6.358937321481327	1977849.205386682
6.42252669469614	806584.558410306
6.486751961643101	728283.0625877817
6.551619481259532	845492.089370433
6.617135676072128	698063.6535719654
6.683307032832849	1029282.009379061
6.750140103161177	1140518.4215033099
6.81764150419279	1097088.230902764
6.885817919234718	912495.173029989
6.954676098427065	1100946.0628859492
7.024222859411336	788246.9454077892
7.094465088005449	1026804.938472845
7.165409738885503	792332.0910119596
7.237063836274358	808081.2495731473
7.309434474637103	731491.2917486787
7.382528819383473	675785.1171261717
7.456354107577308	632194.5829822329
7.530917648653081	823215.421202816
7.606226825139612	793225.1976135358
7.682289093391009	525112.3466373835
7.759111984324918	661998.4426152509
7.836703104168168	749379.2676421178
7.91507013520985	716415.2075970131
7.994220836561947	812619.4068719891
8.074163044927568	770699.9814660317
8.154904675376844	783419.5312091626
8.23645372213061	854381.5562214961
8.318818259351918	916173.5678735363
8.402006441945437	938389.2317238752
8.486026506364892	1071076.5624971315
8.57088677142854	1134356.4861748856
8.656595639142825	1228990.3774667862
8.743161595534254	1281437.8872843306
8.830593211489598	1391387.7435917468
8.918899143604493	1404354.2134737344
9.00808813504054	1402787.9236759054
9.098169016390944	1499506.733869904
9.189150706554853	1534125.069717818
9.281042213620402	1520732.663349157
9.373852635756606	1417750.5999955928
9.467591162114172	1426984.878382692
9.562267073735315	1567058.7637772642
9.657889744472667	1406997.9087509017
9.754468641917395	1522859.8392295071
9.852013328336568	1211006.043383428
9.950533461619933	1407868.1418871763
10.050038796236134	1321140.3869301495
10.150539184198495	1342933.9416334315
10.252044576040479	1204767.161611776
10.354565021800884	983092.4555662312
10.458110672018893	989728.332761521
10.562691778739081	1082925.176954735
10.668318696526473	1077314.6972402954
10.775001883491738	1026208.6419054753
10.882751902326655	898640.0172501348
10.991579421349924	687579.3962659702
11.101495215563421	931952.3637726747
11.212510167719055	853611.5379168019
11.324635269396246	806666.5642424378
11.43788162209021	842431.5788475181
11.552260438311112	624019.9761326412
11.667783042694223	644118.0488872122
11.784460873121166	607667.3207921702
11.902305481852377	675209.6663642393
12.0213285366709	671506.4946674076
12.14154182203761	684166.2600561484
12.262957240257986	515908.63372240355
12.385586812660566	427858.9078679835
12.509442680787172	443331.96733710286
12.634537107595044	499182.87708805274
12.760882478670995	466647.8800687191
12.888491303457704	470005.21980408096
13.01737621649228	377302.42066942237
13.147549978657205	392234.4927016936
13.279025478443776	305833.8766288905
13.411815733228213	300405.898055402
13.545933890560496	348323.62679641484
13.681393229466101	310596.941390492
13.818207161760762	335950.9654358148
13.956389233378369	300289.0525944819
14.095953125712155	317444.4307745534
14.236912656969274	272928.55515220657
14.379281783538968	218562.97138892283
14.523074601374358	208124.91152763905
14.6683053473881	251013.99547087404
14.814988400861985	224716.66783435384
14.963138284870602	202961.25341102187
15.11276966771931	226396.31554574217
15.263897364396504	246033.14460777392
15.41653633804047	186933.75720941776
15.570701701420873	152717.6481746939
15.726408718435081	139476.144993035
15.883672805619431	220936.7886063196
16.042509533675627	160277.34121786957
16.202934629012383	149631.56933599053
16.36496397530251	137810.70295835446
16.528613615055534	134911.52523243587
16.69389975120609	117043.07839421691
16.86083874871815	118753.59069141807
17.02944713620533	130950.15727325622
17.199741607567383	99862.06684172798
17.37173902364306	91050.8281847984
17.54545641387949	102826.55756094989
17.720910978018285	91921.65874931318
17.898120087798468	86885.11965106691
18.077101288676452	91528.34841218646
18.257872301563214	88439.73772264793
18.44045102457885	82820.6666808971
18.62485553482464	72497.24901843006
18.811104090172883	108665.76494047411
18.999215131074614	66037.38929509254
19.189207282385357	68581.99854085839
19.381099355209216	55401.83053539537
19.574910348761303	57108.102636128235
19.77065945224892	62219.436511968604
19.968366046771408	74168.57289376922
20.16804970723912	61392.03932199118
20.369730204311512	51551.70189014569
20.573427506354626	47055.96075440593
20.779161781418175	53367.53979481842
20.98695339923236	42055.78310199583
21.19682293322468	42676.313953538294
21.408791162556927	54271.30166974863
21.622879074182496	37963.69506878021
21.839107864924323	36406.57307546366
22.057498943573567	36594.00128328406
22.278073933009303	38776.570655609394
22.500854672339393	31091.445730753054
22.72586321906279	51347.42414643465
22.953121851253417	28871.427329218663
23.18265306976595	47078.56225451899
23.41447960046361	36890.913279656656
23.648624396468247	25564.595026554904
23.88511064043293	23526.614566041895
24.12396174683726	39559.99783766167
24.365201364305634	35865.20373647998
24.608853377948687	33396.57517571503
24.854941911728176	28021.537086376808
25.103491330845458	19023.227045362557
25.354526244153913	18893.597974511325
25.608071506595454	27010.285051209743
25.864152221661406	25459.425470000555
26.122793743878024	22664.457951895558
26.384021681316803	24141.315896669767
26.64786189812997	15001.409368617371
26.91434051711127	20259.259340896606
27.18348392228238	21965.2769751989
27.455318761505207	27240.061907011794
27.72987194912026	20837.145312961773
28.007170668611465	13837.750594143405
28.28724237529758	12361.168795172396
28.57011479905055	12213.521918031038
28.855815947041062	17048.54839828137
29.144374106511474	12992.395803287107
29.435817847576587	13668.019403501012
29.730176026052348	12854.17166036607
30.027477786312875	14102.193131816692
30.327752564176006	10441.64327712971
30.631030089817763	11000.727761914504
30.93734039071594	9977.04196984268
31.246713794623105	11171.457074342366
31.559180932569333	12937.650751524976
31.874772741895026	10025.841072161691
32.19352046931398	12236.470646779364
32.51545567400712	12167.48755678429
32.84061023074719	7237.065217048578
33.169016333054664	7708.744428214978
33.500706496385206	7865.94497444528
33.83571356134906	11580.24967388715
34.17407069696255	7910.639961500508
34.51581140393218	6553.520505123922
34.8609695179715	6782.949599908935
35.209579213151216	6182.858000483096
35.56167500528272	5501.945075574264
35.917291755335555	5192.259095159693
36.27646467288891	6680.144447368569
36.639229319617804	5971.410411522223
37.005621612813975	7626.936069243036
37.37567782894212	4888.230045857374
37.74943460723154	5498.454053799293
38.12692895330385	6941.7597138331275
38.5081982428369	6328.049393863863
38.893280225265265	4342.066750232755
39.28221302751791	3700.684869258186
39.6750351577931	5148.012985278776
40.071785509371026	3580.2352111352557
40.47250336446474	3592.236950189128
40.87722839810939	3537.2330888699553
41.28600068209048	4781.150756825011
41.69886068891139	4829.582240062818
42.1158492958005	4191.741887411429
42.53700778875851	3821.336512253815
42.962377866646094	2916.721808030844
43.392001645312554	2768.50089975357
43.825921661765676	2568.9747501939255
44.264180878383335	2606.8943329258454
44.70682268716717	2537.3992252496764
45.15389091403884	2648.2469646432264
45.60542982317923	3041.491423376925
46.06148412141103	2575.0826492763204
46.52209896262513	2154.8673340597206
46.98731995225138	2085.1929754586095
47.4571931517739	2756.8146408171715
47.93176508329164	1927.2161443991256
48.411082734124555	2403.0405708839253
48.8951935614658	1792.3952105873143
49.38414549708046	1624.8527591061572
49.877986952051266	1679.6807831107205
50.37676682157178	1618.8651955314538
50.88053448978749	1560.2170253279014
51.38933983468537	1503.6338215654955
51.903233233032225	1449.0702635088771
52.422265565362544	1396.4400150956872
52.946488221016175	1345.6721346170482
53.47595310322633	1296.7255571907099
54.010712634258596	1249.5167749059035
54.550819760601186	1203.990391807451
55.0963279582072	1160.0947960572703
55.647291237789275	1117.7606141285892
56.20376415016716	1076.9489529707164
56.765801791668835	1037.5911254462494
57.33345980958552	999.6509406051846
57.906794407681375	963.0705989132987
58.48586235175819	927.7992184972757
59.070720975275776	893.803883996162
59.661428185028534	861.0221183960981
60.25804246687882	829.4293025460141
60.860622891547614	798.9712529953418
61.46922912046309	769.6126725873938
62.083921411667724	741.3164336221772
62.7047606257844	714.0388356186512
63.331808232042235	687.7531917200945
63.965126314362664	662.4168374271461
64.60477757750628	637.9983346431206
65.25082535328136	614.4667131237596
65.90333360681416	591.7856920206434
66.56236694288232	569.9332732418849
67.22799061231113	548.8729043577468
67.90027051843424	528.5787708198559
68.57927322361859	509.0248085961663
69.26506595585477	490.1813632592169
69.95771661541333	472.0277102608821
70.65729378156746	454.5348903257553
71.36386671938313	437.6815317051159
72.07750538657696	421.444064235063
72.79828044044274	405.7996158624745
73.52626324484716	390.7293881485257
74.26152587729563	376.20972947059136
75.00414113606858	362.22343211506814
75.75418254742928	348.74973236752146
76.51172437290357	335.769636006659
77.27684161663261	323.2681630170975
78.04961003279894	311.2239057291141
78.83010613312693	299.62484814102794
79.6184071944582	288.45145083893
80.41459126640278	277.68917806804035
81.2187371790668	267.32486513822477
82.03092455085748	257.341166786066
82.85123379636605	247.72707692251174
83.6797461343297	238.46708096933713
84.51654359567301	229.5491438429144
85.36170903162974	220.9613577093469
86.21532612194603	212.69024305646943
87.0774793831655	204.72637937063874
87.94825417699715	197.05654615987515
88.82773671876713	189.6712852947874
89.71601408595481	182.55990719727296
90.61317422681435	175.71142789150045
91.5193059690825	169.11836068172767
92.43449902877332	162.76873227357683
93.35884401906105	156.65603854864605
