#wavelength	surface flux
0.428837	379.56613973485656
0.43312537	737.5885431289095
0.43745662370000005	851.6193783852733
0.4418311899370001	990.6400451099423
0.44624950183637	1144.5951840441078
0.4507119968547338	1296.5621930837897
0.45521911682328114	1481.476941732921
0.4597713079915139	1725.0029847051171
0.4643690210714291	1977.2776588742954
0.4690127112821433	2253.223604879515
0.47370283839496474	2554.8378829108997
0.47843986677891437	2823.156488834927
0.48322426544670355	3194.3695225095726
0.48805650810117057	3651.870810895386
0.4929370731821824	4090.3446074344156
0.49786644391400414	4506.344550711086
0.5028451083531442	4944.47102136557
0.5078735594366757	5333.099910550956
0.5129522950310424	5580.832021095727
0.5180818179813528	5867.463770843073
0.5232626361611664	6798.06486429405
0.5284952625227781	7208.693456005555
0.5337802151480058	7428.88239686126
0.5391180172994858	7504.249056872296
0.5445091974724807	7354.009784644098
0.5499542894472055	6937.501502238419
0.5554538323416777	6206.135144906858
0.5610083706650945	5142.068345197106
0.5666184543717453	3781.982105455475
0.5722846389154628	2291.7330704706433
0.5780074853046174	954.2011989884704
0.5837875601576636	166.41882328580112
0.5896254357592402	6.278623483991118
0.5955216901168326	321.81192201514267
0.6014769070180009	1845.9974714008374
0.607491676088181	4994.806262379893
0.6135665928490629	9702.696236639704
0.6197022587775535	15797.92702078776
0.625899281365329	23113.175143854267
0.6321582741789823	31494.00602875287
0.6384798569207721	40862.6042585712
0.6448646554899798	51042.34285466918
0.6513133020448797	62330.52354967413
0.6578264350653285	73986.30407461946
0.6644046994159818	86121.06248887084
0.6710487464101416	74279.42782262819
0.677759233874243	113773.01781879528
0.6845368262129854	129352.15319777794
0.6913821944751153	142056.01646833372
0.6982960164198664	159525.11389697305
0.7052789765840651	174621.84885166338
0.7123317663499058	188397.46069463436
0.7194550840134049	195019.92225850673
0.7266496348535388	198939.85921461246
0.7339161312020743	199717.97022595428
0.741255292514095	188583.6142072236
0.748667845439236	155472.27368569566
0.7561545238936284	91371.57577599728
0.7637160691325647	13463.726301995384
0.7713532298238903	10495.68240038604
0.7790667621221293	102308.41272900414
0.7868574297433505	241462.6697129474
0.7947260040407841	211016.5748554397
0.8026732640811919	451079.51457571023
0.8106999967220039	520027.55269262684
0.8188069966892239	612056.2403251582
0.8269950666561161	696558.8856163211
0.8352650173226772	765651.6992444731
0.8436176674959041	867160.7913119432
0.852053844170863	917003.3061191597
0.8605743826125718	1037541.8792304116
0.8691801264386976	1115000.9502661421
0.8778719277030844	1197954.5492326173
0.8866506469801153	1265093.4599702524
0.8955171534499164	1238718.6645974081
0.9044723249844157	1488194.9850833719
0.9135170482342599	1578511.808134975
0.9226522187166025	1634847.9280312834
0.9318787409037684	1071447.9513140623
0.941197528312806	1428077.5116688318
0.9506095035959342	1345543.8950727303
0.9601155986318936	1331955.2429747072
0.9697167546182125	1515544.7716603912
0.9794139221643946	2014017.8842057372
0.9892080613860387	2324928.4362648427
0.9991001419998989	2591307.718058103
1.0090911434198981	2826684.7219685046
1.019182054854097	3109141.8237382676
1.0293738754026378	3156203.597821083
1.0396676141566643	3509874.5062262095
1.050064290298231	3658198.00125525
1.0605649332012133	3894444.0796470833
1.0711705825332256	4040257.3915327066
1.0818822883585577	4253801.581242105
1.0927011112421434	4097848.697141191
1.1036281223545648	2373624.9928950155
1.1146644035781104	2096914.2678674336
1.1258110476138916	2229035.6725961976
1.1370691580900303	2413052.566293496
1.1484398496709307	2977345.049999157
1.1599242481676402	1643794.849949445
1.1715234906493166	2868002.6960986787
1.1832387255558097	4812055.28748178
1.1950711128113678	5764459.061172647
1.2070218239394814	6196962.872604465
1.2190920421788762	6752454.908886574
1.2312829626006652	7199749.427753531
1.2435957922266716	7562020.946451618
1.2560317501489384	7824506.714543846
1.2685920676504279	7994056.020958438
1.281277988326932	8091001.8359771725
1.2940907682102014	7800595.208025569
1.3070316758923035	7553951.936996465
1.3201019926512265	7867812.102854216
1.3333030125777388	3170922.2749525188
1.3466360427035162	768907.5559989914
1.3601024031305513	255879.21956485652
1.373703427161857	1078606.5156921055
1.3874404614334754	188545.1687172878
1.4013148660478103	563651.8293899908
1.4153280147082883	452626.53245041455
1.4294812948553712	681410.2575522112
1.443776107803925	1280114.8895744518
1.4582138688819641	3200390.567463315
1.4727960075707838	3009655.901201211
1.4875239676464918	4995495.766276469
1.5023992073229566	5917586.5299698105
1.5174231993961862	7485594.2494470095
1.532597431390148	9354747.863616902
1.5479234057040496	10702881.18640254
1.5634026397610903	11514276.92748674
1.579036666158701	11134191.698318858
1.594827032820288	12569453.835713904
1.610775303148491	11974621.513946323
1.6268830561799759	9746127.68671979
1.6431518867417756	12270005.323360983
1.6595834056091934	11415539.55437672
1.6761792396652853	10292775.149558343
1.6929410320619382	7912285.000584561
1.7098704423825577	8102194.028028264
1.7269691468063835	9489920.281451944
1.744238838274447	7381672.584788745
1.7616812266571917	7724484.045831969
1.7792980389237634	1864944.9415573468
1.7970910193130012	2664462.2513633207
1.815061929506131	912496.3968021171
1.8332125488011928	666612.6240141595
1.8515446742892046	1286207.843036502
1.8700601210320964	724190.0597606585
1.8887607222424174	2914080.7441803454
1.9076483294648416	483367.7732241212
1.92672481275949	507224.6295413763
1.9459920608870853	1313810.471602365
1.9654519814959561	1690492.0980625032
1.9851065013109155	4529836.496347532
2.0049575663240247	6079578.242517144
2.025007141987265	8791295.148255797
2.0452572134071376	12998864.837755611
2.065709785541209	14675175.676374994
2.086366883396621	15125133.747555781
2.107230552230587	14501506.853828708
2.1283028577528933	13919822.874676326
2.1495858863304225	11610890.599736866
2.1710817451937263	10632815.472675415
2.1927925626456637	6376577.0094295535
2.2147204882721203	3560431.103828409
2.2368676931548412	1788721.4133819914
2.25923637008639	1716503.7625574432
2.281828733787254	1419653.2333570307
2.3046470211251266	2043502.722368395
2.327693491336378	919296.7045680939
2.3509704262497415	910099.8944565156
2.374480130512239	717050.2403188492
2.3982249318173614	1262151.8708763963
2.4222071811355352	2307235.0477952105
2.4464292529468903	2291779.4382957546
2.4708935454763594	1634887.3648383925
2.4956024809311232	819470.4068309711
2.5205585057404343	333016.42064484255
2.5457640907978387	633829.5874970733
2.5712217317058172	204556.57465615045
2.5969339490228753	150465.1192479786
2.622903288513104	507628.76204467163
2.6491323213982354	784785.4164803158
2.6756236446122177	68563.57020325269
2.7023798810583397	379264.3025590234
2.729403679868923	1100852.2262444873
2.7566977166676123	405033.45006611483
2.7842646938342885	317197.25868954
2.812107340772631	398413.2831859438
2.8402284141803578	909045.3221334601
2.8686306983221614	578742.6412474628
2.897317005305383	804805.8039022464
2.926290175358437	1911742.7454804152
2.9555530771120213	2212779.9249227615
2.9851086078831415	2294169.595744524
3.014959693961973	2802114.4655247154
3.0451092909015927	2439751.5403399193
3.0755603838106085	2530674.051951545
3.1063159876487147	1636546.6873787278
3.137379147525202	1114438.050682276
3.168752939000454	747996.176225811
3.200440468390459	580032.1608704154
3.232444873074363	380969.8017955975
3.264769321805107	1129328.6599543495
3.297417015023158	1158653.869920402
3.330391185173389	204175.75291648827
3.3636950970251234	863371.2006453745
3.397332047995375	697967.0233518976
3.4313053684753285	521692.68209192634
3.465618422160081	607345.5109380645
3.5002746063816828	913126.398190018
3.5352773524454997	1210555.40298736
3.570630125969955	1673972.3989125146
3.606336427229654	2254134.964620068
3.6423997915019504	3088357.915819845
3.67882378941697	4073868.5969789075
3.7156120273111397	4477932.839239934
3.7527681475842516	5435411.894847394
3.7902958290600934	5489783.610757551
3.8281987873506953	6896990.92712077
3.8664807752242023	6986330.081812683
3.905145582976444	7239746.125337597
3.9441970388062084	7898261.680950038
3.983639009194271	8009243.410172295
4.023475399286213	8375829.044109339
4.063710153279075	8501460.73319629
4.1043472548118665	8265169.714454542
4.145390727359985	7880259.216186806
4.186844634633585	7541969.337203252
4.2287130809799205	6991980.8693884
4.27100021178972	6530442.130338961
4.313710213907617	6445492.781562134
4.356847316046694	5636560.125713713
4.40041578920716	4909861.833346823
4.444419947099232	4347547.555062761
4.488864146570225	3982678.071453322
4.533752788035927	3601967.8719384368
4.579090315916286	3732820.125713502
4.624881219075449	3584078.7026548884
4.671130031266204	3697472.8863295903
4.717841331578866	3296872.9648488727
4.765019744894654	3391977.6139863683
4.812669942343601	3324149.2385804052
4.8607966417670365	3500062.9977601124
4.9094046081847065	3183653.851470231
4.958498654266554	1975035.403065324
5.008083640809219	2443827.3067457695
5.058164477217312	3167057.1213577725
5.108746121989485	2476194.088517258
5.15983358320938	1768813.2476904248
5.211431919041474	1240321.787547866
5.263546238231889	1715513.2376157076
5.316181700614208	2117800.4008791484
5.36934351762035	1051857.120019822
5.423036952796553	747527.6278098437
5.4772673223245185	819707.6391339424
5.532039995547764	931993.6147665416
5.587360395503242	649475.0129240125
5.643233999458275	509253.9207818125
5.6996663394528575	482420.668341844
5.756663002847385	461157.1143696885
5.814229632875859	552277.8104080075
5.872371929204618	387857.07184953894
5.931095648496664	477366.4799736021
5.990406604981631	644993.4450713241
6.050310671031448	519281.6575386665
6.110813777741763	667862.9542339483
6.17192191551918	557298.2721694249
6.233641134674372	1451241.887477984
6.295977546021115	1589824.6730286248
6.358937321481327	969372.205855604
6.42252669469614	308512.2160119444
6.486751961643101	274306.80486428237
6.551619481259532	340119.86122846085
6.617135676072128	289706.133978174
6.683307032832849	497152.8189925546
6.750140103161177	604112.5160852006
6.81764150419279	595890.4801622782
6.885817919234718	423792.3007318323
6.954676098427065	602859.9051862181
7.024222859411336	362618.6089390668
7.094465088005449	563862.349472623
7.165409738885503	381577.615779262
7.237063836274358	416184.07633079746
7.309434474637103	343628.4261104875
7.382528819383473	296244.3145271822
7.456354107577308	284219.7210276468
7.530917648653081	393029.94197152683
7.606226825139612	420307.86969320744
7.682289093391009	221555.02228518535
7.759111984324918	335786.5489153355
7.836703104168168	366093.91831662896
7.91507013520985	344878.7892054267
7.994220836561947	406246.8750438128
8.074163044927568	406206.5051416972
8.154904675376844	438663.1387562295
8.23645372213061	503098.49251718575
8.318818259351918	557006.2865506267
8.402006441945437	579713.5569810352
8.486026506364892	699808.9950918513
8.57088677142854	749927.7664498852
8.656595639142825	819187.5099091731
8.743161595534254	877949.6071830706
8.830593211489598	945143.664368803
8.918899143604493	923743.9829937287
9.00808813504054	945420.7289521545
9.098169016390944	1014913.179221117
9.189150706554853	1035789.0648566899
9.281042213620402	1014948.7215353403
9.373852635756606	893385.9408480801
9.467591162114172	1004013.0695258187
9.562267073735315	1077976.69902287
9.657889744472667	938045.0547900184
9.754468641917395	1041205.9635245914
9.852013328336568	839317.9379059465
9.950533461619933	991892.5949491084
10.050038796236134	927750.2363629238
10.150539184198495	949490.3386215045
10.252044576040479	846345.876035108
10.354565021800884	637230.5127784768
10.458110672018893	694435.76218317
10.562691778739081	768464.3684066766
10.668318696526473	740769.725820343
10.775001883491738	708323.1847927381
10.882751902326655	652103.4096099705
10.991579421349924	501713.5967064447
11.101495215563421	679642.0767416934
11.212510167719055	548429.9899405396
11.324635269396246	586050.2632881427
11.43788162209021	624857.3345667418
11.552260438311112	428068.7507399763
11.667783042694223	468915.59608527354
11.784460873121166	453665.09966020455
11.902305481852377	500081.6620875913
12.0213285366709	507758.0529887426
12.14154182203761	527519.7361721294
12.262957240257986	391577.2255277907
12.385586812660566	321050.5221911693
12.509442680787172	324875.3781360076
12.634537107595044	388155.0385757015
12.760882478670995	361695.2868747003
12.888491303457704	347059.0096213818
13.01737621649228	288179.5785280579
13.147549978657205	308100.1341260835
13.279025478443776	229568.97684058876
13.411815733228213	221540.52180920853
13.545933890560496	280249.2721959748
13.681393229466101	239206.9292731356
13.818207161760762	256398.56570768965
13.956389233378369	236916.4334309858
14.095953125712155	249434.04085782263
14.236912656969274	216668.30529008113
14.379281783538968	162454.68858955774
14.523074601374358	153795.9612671481
14.6683053473881	202351.15435950083
14.814988400861985	182287.75830769286
14.963138284870602	162240.8150378904
15.11276966771931	180224.3767820636
15.263897364396504	198188.0620756791
15.41653633804047	153506.78952802194
15.570701701420873	115205.1068473848
15.726408718435081	101573.6071926035
15.883672805619431	181795.12669592
16.042509533675627	126531.8670237126
16.202934629012383	116882.32964833037
16.36496397530251	112472.90699624186
16.528613615055534	106433.2180943106
16.69389975120609	89990.1418165216
16.86083874871815	85482.20678932912
17.02944713620533	105727.49566068339
17.199741607567383	75415.74911480713
17.37173902364306	68750.64958073976
17.54545641387949	75568.27399252712
17.720910978018285	73046.34852697508
17.898120087798468	68753.30838949018
18.077101288676452	73058.56695864169
18.257872301563214	64209.02848927709
18.44045102457885	66240.52591222446
18.62485553482464	56721.67857261782
18.811104090172883	89524.61033730378
18.999215131074614	49495.31089623181
19.189207282385357	51576.03693062018
19.381099355209216	41053.36356399822
19.574910348761303	43484.33937995393
19.77065945224892	46213.77312167128
19.968366046771408	58548.61412611405
20.16804970723912	49668.58261473921
20.369730204311512	39809.72980745253
20.573427506354626	34825.009066470804
20.779161781418175	41566.096794721154
20.98695339923236	31758.286038035072
21.19682293322468	31043.670930928718
21.408791162556927	41965.6795074301
21.622879074182496	28967.477928938624
21.839107864924323	25727.53612690793
22.057498943573567	26942.94417635422
22.278073933009303	30473.254112754614
22.500854672339393	22625.538529414916
22.72586321906279	41974.234712906524
22.953121851253417	21310.701155306167
23.18265306976595	36435.807973271
23.41447960046361	29190.364102320742
23.648624396468247	18262.25333723094
23.88511064043293	16559.717180787524
24.12396174683726	32639.399343321576
24.365201364305634	29738.067309393075
24.608853377948687	27861.922523198646
24.854941911728176	22477.32925132434
25.103491330845458	13283.716993312264
25.354526244153913	13500.153825503583
25.608071506595454	22487.12820487117
25.864152221661406	18382.407663270453
26.122793743878024	17495.500132687353
26.384021681316803	19257.35845100367
26.64786189812997	10423.392426275108
26.91434051711127	15246.151168343169
27.18348392228238	17594.269702840207
27.455318761505207	22049.970996551598
27.72987194912026	16781.594904653786
28.007170668611465	9870.021435157463
28.28724237529758	8598.369467696319
28.57011479905055	8582.74028091138
28.855815947041062	13103.94812001103
29.144374106511474	9322.78278291423
29.435817847576587	10711.344451269444
29.730176026052348	9189.726650443728
30.027477786312875	11265.15744648243
30.327752564176006	7578.979826672115
30.631030089817763	8292.348990618691
30.93734039071594	7371.3449678361085
31.246713794623105	9009.372718985047
31.559180932569333	10481.386754053168
31.874772741895026	7647.883085102694
32.19352046931398	9792.856966136089
32.51545567400712	9471.872408607576
32.84061023074719	5068.394997675798
33.169016333054664	5568.160717547874
33.500706496385206	5860.852889504622
33.83571356134906	9486.3511090058
34.17407069696255	6021.670208594188
34.51581140393218	4627.767786249407
34.8609695179715	5284.362905735363
35.209579213151216	4598.970997350944
35.56167500528272	3848.1001578506057
35.917291755335555	3594.5558010037557
36.27646467288891	4912.5442345356605
36.639229319617804	4623.831870118238
37.005621612813975	6370.573161173296
37.37567782894212	3630.5684238848253
37.74943460723154	4222.437237478898
38.12692895330385	5781.077888754591
38.5081982428369	5219.819329973475
38.893280225265265	3235.811612908037
39.28221302751791	2561.464314662186
39.6750351577931	4053.6917763912784
40.071785509371026	2563.844586184316
40.47250336446474	2560.3236314194755
40.87722839810939	2585.7431838474954
41.28600068209048	3967.38341132947
41.69886068891139	3983.3430809037923
42.1158492958005	3196.0486422957056
42.53700778875851	2989.7435335460978
42.962377866646094	2179.5841118055478
43.392001645312554	2057.034745769928
43.825921661765676	1803.626412852984
44.264180878383335	1861.8396264399855
44.70682268716717	1838.1576939393817
45.15389091403884	1948.587593083067
45.60542982317923	2487.0199104376698
46.06148412141103	2016.5960614623948
46.52209896262513	1586.384724883954
46.98731995225138	1550.357480557813
47.4571931517739	2209.6794565256164
47.93176508329164	1367.1377471451276
48.411082734124555	1928.3651514301898
48.8951935614658	1300.5145302719602
49.38414549708046	1147.22742029036
49.877986952051266	1212.0347568093173
50.37676682157178	1169.1920003334183
50.88053448978749	1127.8246655288415
51.38933983468537	1087.870462416907
51.903233233032225	1049.293150844129
52.422265565362544	1012.0409500380845
52.946488221016175	976.0700620460067
53.47595310322633	941.3481217156706
54.010712634258596	907.8213667430417
54.550819760601186	875.4560158509873
55.0963279582072	844.2134446272186
55.647291237789275	814.0530515025271
56.20376415016716	784.9441992948495
56.765801791668835	756.8457198841226
57.33345980958552	729.7283952643256
57.906794407681375	703.5582447439937
58.48586235175819	678.3005425912486
59.070720975275776	653.9298170451713
59.661428185028534	630.4091374085207
60.25804246687882	607.7173685526814
60.860622891547614	585.8201052150524
61.46922912046309	564.6934316362303
62.083921411667724	544.3125090494708
62.7047606257844	524.6466132985403
63.331808232042235	505.6790262571575
63.965126314362664	487.3799403407872
64.60477757750628	469.72782119201537
65.25082535328136	452.70191538511983
65.90333360681416	436.2772681368974
66.56236694288232	420.43916948334385
67.22799061231113	405.1618827633104
67.90027051843424	390.42843372889524
68.57927322361859	376.2201643370696
69.26506595585477	362.517171352051
69.95771661541333	349.3049671779545
70.65729378156746	336.56374313655294
71.36386671938313	324.27834006802294
72.07750538657696	312.4327442105881
72.79828044044274	301.010982799424
73.52626324484716	289.9998992661369
74.26152587729563	279.383273933873
75.00414113606858	269.14887901186216
75.75418254742928	259.2823635300722
76.51172437290357	249.7703912618628
77.27684161663261	240.6023327735427
78.04961003279894	231.76339927088955
78.83010613312693	223.24524784068714
79.6184071944582	215.0340717403855
80.41459126640278	207.11942754808834
81.2187371790668	199.49203033265619
82.03092455085748	192.14020850024232
82.85123379636605	185.05569642090762
83.6797461343297	178.22762787967451
84.51654359567301	171.64744208002884
85.36170903162974	165.30688217254476
86.21532612194603	159.19605824123573
87.0774793831655	153.30859688683293
87.94825417699715	147.63529610484974
88.82773671876713	142.16884588693515
89.71601408595481	136.9019055767146
90.61317422681435	131.826700898956
91.5193059690825	126.9378812511293
92.43449902877332	122.22695221144077
93.35884401906105	117.68887475114194
94.29243245925167	113.3168640374184
