#wavelength	surface flux
0.428837	27.969582015644377
0.43312537	55.757154195881775
0.43745662370000005	67.12870510554801
0.4418311899370001	80.65341436409517
0.44624950183637	96.70811500082856
0.4507119968547338	115.63811885637374
0.45521911682328114	137.8368504232068
0.4597713079915139	164.47528503106517
0.4643690210714291	195.56097625829983
0.4690127112821433	231.86567143905637
0.47370283839496474	274.42068127126
0.47843986677891437	323.8939957563058
0.48322426544670355	381.35353352929025
0.48805650810117057	448.13122567298683
0.4929370731821824	524.9885496091782
0.49786644391400414	613.1765334150033
0.5028451083531442	713.3454879215383
0.5078735594366757	827.2659750252533
0.5129522950310424	953.8509922460006
0.5180818179813528	1092.3469569100541
0.5232626361611664	1254.877365077308
0.5284952625227781	1422.9058680950893
0.5337802151480058	1595.4586133381463
0.5391180172994858	1763.526048879214
0.5445091974724807	1909.236064571807
0.5499542894472055	2008.1195541343186
0.5554538323416777	2013.0535347885107
0.5610083706650945	1865.6388469431627
0.5666184543717453	1505.440681175368
0.5722846389154628	949.2811840811562
0.5780074853046174	373.9151418605994
0.5837875601576636	60.108929957689426
0.5896254357592402	2.7944437756857807
0.5955216901168326	118.6672901693148
0.6014769070180009	749.9847724852539
0.607491676088181	2161.8771273447055
0.6135665928490629	4186.4280006222125
0.6197022587775535	6558.590280102246
0.625899281365329	9139.330060863698
0.6321582741789823	11864.85531299078
0.6384798569207721	14751.368531832299
0.6448646554899798	17728.1270426122
0.6513133020448797	21050.459565040877
0.6578264350653285	24447.93250267923
0.6644046994159818	28376.218404385665
0.6710487464101416	29103.529969274277
0.677759233874243	37126.854531504105
0.6845368262129854	42038.57867691098
0.6913821944751153	46155.413995426534
0.6982960164198664	52479.29857983705
0.7052789765840651	58450.67433153461
0.7123317663499058	64669.60310033922
0.7194550840134049	68256.84227410736
0.7266496348535388	71519.42942140248
0.7339161312020743	77435.33434025118
0.741255292514095	80370.77049864145
0.748667845439236	74302.70667573766
0.7561545238936284	47360.31337848308
0.7637160691325647	6190.927381054574
0.7713532298238903	4832.633867099692
0.7790667621221293	54371.565927036325
0.7868574297433505	121610.47840922514
0.7947260040407841	101764.19529081613
0.8026732640811919	196832.77210884626
0.8106999967220039	212766.55360666095
0.8188069966892239	248796.4190281735
0.8269950666561161	274948.88404945756
0.8352650173226772	296227.2880344313
0.8436176674959041	339337.12334559736
0.852053844170863	374063.1534897088
0.8605743826125718	414213.06089291256
0.8691801264386976	451197.1662560867
0.8778719277030844	481233.66061785363
0.8866506469801153	490041.90176637063
0.8955171534499164	472623.4075424676
0.9044723249844157	594270.4721530905
0.9135170482342599	634937.223790891
0.9226522187166025	663665.8633506871
0.9318787409037684	347430.7304559612
0.941197528312806	513362.17844983283
0.9506095035959342	454507.60088525136
0.9601155986318936	454845.83569686225
0.9697167546182125	570332.229158242
0.9794139221643946	825003.9843990593
0.9892080613860387	1009857.0613257134
0.9991001419998989	1183227.5406631944
1.0090911434198981	1306460.667969294
1.019182054854097	1442233.1476247264
1.0293738754026378	1450935.6276078972
1.0396676141566643	1653114.690014153
1.050064290298231	1734219.4198106455
1.0605649332012133	1865335.6767390368
1.0711705825332256	1948133.3928732115
1.0818822883585577	2068634.9195250168
1.0927011112421434	2016807.412054995
1.1036281223545648	949485.6905066487
1.1146644035781104	733351.9724578368
1.1258110476138916	653202.2809257183
1.1370691580900303	914040.820741168
1.1484398496709307	1126400.5251888144
1.1599242481676402	378018.75342435634
1.1715234906493166	1105272.0604763792
1.1832387255558097	2407318.3138894336
1.1950711128113678	3074087.423192499
1.2070218239394814	3396752.875193213
1.2190920421788762	3715929.909296409
1.2312829626006652	4001446.148578259
1.2435957922266716	4253723.056881666
1.2560317501489384	4457153.4497293355
1.2685920676504279	4545111.4109351635
1.281277988326932	4611876.054940411
1.2940907682102014	4338728.698024613
1.3070316758923035	4074786.0337223476
1.3201019926512265	4339796.37561948
1.3333030125777388	1225715.8168231787
1.3466360427035162	122751.2590510182
1.3601024031305513	22725.11729943791
1.373703427161857	164631.85175503115
1.3874404614334754	11843.056210649986
1.4013148660478103	77190.61772984457
1.4153280147082883	51775.15307314994
1.4294812948553712	84159.84112159294
1.443776107803925	272726.25410500023
1.4582138688819641	1151441.4658151332
1.4727960075707838	904756.3687895512
1.4875239676464918	2193035.7579452563
1.5023992073229566	2690935.011494895
1.5174231993961862	4171886.953342863
1.532597431390148	5829561.4233814515
1.5479234057040496	6975242.770365398
1.5634026397610903	7560544.805410352
1.579036666158701	6625432.14901498
1.594827032820288	8171151.020561255
1.610775303148491	7103908.173127638
1.6268830561799759	4207745.265587835
1.6431518867417756	6786280.400264496
1.6595834056091934	5911256.842938768
1.6761792396652853	4488997.759437609
1.6929410320619382	2577463.072932321
1.7098704423825577	2828945.214915018
1.7269691468063835	4131661.237023314
1.744238838274447	3147175.0228093937
1.7616812266571917	3335685.4439984486
1.7792980389237634	403576.6261868242
1.7970910193130012	904401.6532279337
1.815061929506131	158267.21571205676
1.8332125488011928	88450.3997740994
1.8515446742892046	301230.0069129127
1.8700601210320964	86726.11722241118
1.8887607222424174	863405.6330470152
1.9076483294648416	35103.985503425625
1.92672481275949	51841.924271450494
1.9459920608870853	280401.86298449093
1.9654519814959561	451695.3613650003
1.9851065013109155	1776493.719909643
2.0049575663240247	2954977.506111925
2.025007141987265	4752219.384481435
2.0452572134071376	9412260.33633166
2.065709785541209	11162013.754773855
2.086366883396621	11508738.037628341
2.107230552230587	10444197.98042913
2.1283028577528933	8963748.365899092
2.1495858863304225	5884970.708404463
2.1710817451937263	5023923.999720387
2.1927925626456637	2156007.1027497584
2.2147204882721203	732871.0958999322
2.2368676931548412	225020.1529199634
2.25923637008639	214591.82611364214
2.281828733787254	178365.03048469176
2.3046470211251266	331964.15763264743
2.327693491336378	120419.18963589903
2.3509704262497415	102700.65532554551
2.374480130512239	83208.5313289825
2.3982249318173614	178082.9963406696
2.4222071811355352	475406.7104956042
2.4464292529468903	583912.9739108968
2.4708935454763594	453004.29441620247
2.4956024809311232	191727.16630796142
2.5205585057404343	55128.939051384754
2.5457640907978387	139954.45470701458
2.5712217317058172	33321.32452770045
2.5969339490228753	15449.371965893119
2.622903288513104	101099.66578324963
2.6491323213982354	204342.43381722333
2.6756236446122177	6422.329302167801
2.7023798810583397	70766.07681583967
2.729403679868923	321373.54158478667
2.7566977166676123	56074.3272209288
2.7842646938342885	42849.21951019267
2.812107340772631	65958.91448554076
2.8402284141803578	229083.13818579388
2.8686306983221614	129825.93757627218
2.897317005305383	208664.70517952883
2.926290175358437	595681.3942383736
2.9555530771120213	798004.0240954055
2.9851086078831415	881514.9730605457
3.014959693961973	1003132.6345073384
3.0451092909015927	678478.9413420323
3.0755603838106085	1021697.9992698747
3.1063159876487147	578519.1496673619
3.137379147525202	377019.7246143769
3.168752939000454	224734.79463443346
3.200440468390459	149811.6585768304
3.232444873074363	87865.46938317992
3.264769321805107	306360.76608994894
3.297417015023158	298488.94094488054
3.330391185173389	43750.13588257104
3.3636950970251234	228627.26581380557
3.397332047995375	174888.9907496057
3.4313053684753285	117157.87102622703
3.465618422160081	158815.46043332978
3.5002746063816828	282118.14856460923
3.5352773524454997	343222.81728029985
3.570630125969955	546610.6210498376
3.606336427229654	744172.3526333304
3.6423997915019504	1155077.886089586
3.67882378941697	1623696.222840177
3.7156120273111397	1704530.3806349866
3.7527681475842516	2369859.477586254
3.7902958290600934	2297365.221259197
3.8281987873506953	3610608.704978666
3.8664807752242023	3531593.09249112
3.905145582976444	3729797.055970052
3.9441970388062084	4647613.510177857
3.983639009194271	4817706.638639997
4.023475399286213	5522972.858810695
4.063710153279075	5823546.028513085
4.1043472548118665	5828660.5728479475
4.145390727359985	5649382.993314787
4.186844634633585	5475840.283032077
4.2287130809799205	4748604.949391036
4.27100021178972	4444540.132952743
4.313710213907617	4522681.012809762
4.356847316046694	3793733.2985006147
4.40041578920716	3516057.635490547
4.444419947099232	3147695.361260829
4.488864146570225	3046427.189092361
4.533752788035927	2751358.61880161
4.579090315916286	2880981.864987544
4.624881219075449	2587558.1806194494
4.671130031266204	2484121.7477988102
4.717841331578866	2269388.95581724
4.765019744894654	2547382.6668749214
4.812669942343601	2312693.893064781
4.8607966417670365	2481960.108744298
4.9094046081847065	2192278.0288706324
4.958498654266554	1076485.7755878968
5.008083640809219	1414869.21325183
5.058164477217312	2076566.3763601661
5.108746121989485	1503569.911409272
5.15983358320938	896791.8111514099
5.211431919041474	616764.2785929934
5.263546238231889	873049.5771545301
5.316181700614208	1189709.1863251876
5.36934351762035	471697.9771662655
5.423036952796553	301156.62423360127
5.4772673223245185	312233.6783985601
5.532039995547764	381249.20915700967
5.587360395503242	237468.09094264297
5.643233999458275	163488.91697769953
5.6996663394528575	160828.42655641478
5.756663002847385	140687.9839259299
5.814229632875859	205674.1862609588
5.872371929204618	108831.6880375217
5.931095648496664	170939.56863619457
5.990406604981631	226648.68886479884
6.050310671031448	200755.41701382713
6.110813777741763	176118.86044568574
6.17192191551918	190353.27272581757
6.233641134674372	758820.0395166351
6.295977546021115	870009.9062912645
6.358937321481327	435280.55889709556
6.42252669469614	97620.28973625082
6.486751961643101	76806.79431250303
6.551619481259532	108540.63042335148
6.617135676072128	100393.44547944951
6.683307032832849	210759.76704608556
6.750140103161177	291875.1460866307
6.81764150419279	292850.72962195
6.885817919234718	170279.1244196104
6.954676098427065	314610.6157700143
7.024222859411336	142763.0708244136
7.094465088005449	284684.37154528836
7.165409738885503	162434.28312023828
7.237063836274358	195178.4313211576
7.309434474637103	140193.16754006708
7.382528819383473	106170.58707403013
7.456354107577308	105184.59069448485
7.530917648653081	157782.98705889267
7.606226825139612	195490.53900983403
7.682289093391009	74433.16548748658
7.759111984324918	144972.18333984553
7.836703104168168	144140.9155621693
7.91507013520985	135260.16846462287
7.994220836561947	172161.22123333142
8.074163044927568	187647.09524320398
8.154904675376844	221612.1623179683
8.23645372213061	277663.30630615685
8.318818259351918	317700.61935557757
8.402006441945437	340363.29355386057
8.486026506364892	434769.5664093662
8.57088677142854	494483.87449771893
8.656595639142825	555189.3941922801
8.743161595534254	630889.6228344776
8.830593211489598	696470.7563811049
8.918899143604493	642555.1227705458
9.00808813504054	692527.4539365023
9.098169016390944	773757.0519225824
9.189150706554853	816183.6185895359
9.281042213620402	758265.0750294233
9.373852635756606	543725.7427278035
9.467591162114172	828696.3217901345
9.562267073735315	926604.2609803888
9.657889744472667	690455.8998903504
9.754468641917395	869893.720135048
9.852013328336568	651551.6925918766
9.950533461619933	884820.4565042816
10.050038796236134	791016.419330087
10.150539184198495	858227.7629470321
10.252044576040479	702028.4454229148
10.354565021800884	427685.5705462143
10.458110672018893	522629.60913751635
10.562691778739081	622241.5586398139
10.668318696526473	555277.7763455476
10.775001883491738	512193.23960203823
10.882751902326655	528027.3804304232
10.991579421349924	380720.20456526225
11.101495215563421	574525.8164570001
11.212510167719055	439110.94098665554
11.324635269396246	458896.73029688164
11.43788162209021	539201.612921912
11.552260438311112	325178.88992375176
11.667783042694223	366606.12748873077
11.784460873121166	352802.2383684281
11.902305481852377	406581.2572066677
12.0213285366709	422569.40391135
12.14154182203761	460598.3677895372
12.262957240257986	313308.64633651625
12.385586812660566	249496.6763115147
12.509442680787172	239506.91514900513
12.634537107595044	321009.1755447421
12.760882478670995	293887.6429721616
12.888491303457704	259734.46236146305
13.01737621649228	223907.12913741524
13.147549978657205	251190.5744421579
13.279025478443776	170899.29090284163
13.411815733228213	162517.14966739708
13.545933890560496	234888.5893064446
13.681393229466101	183355.99277120735
13.818207161760762	173944.95735099626
13.956389233378369	189385.78146838126
14.095953125712155	198996.34970638232
14.236912656969274	175553.97934040686
14.379281783538968	116220.25633791728
14.523074601374358	110808.46737553712
14.6683053473881	163183.21353234138
14.814988400861985	147809.02797381184
14.963138284870602	128183.69046372632
15.11276966771931	140569.39301278157
15.263897364396504	163930.75929595897
15.41653633804047	126047.33965869984
15.570701701420873	79187.03249202149
15.726408718435081	68516.47115193008
15.883672805619431	152972.80247855277
16.042509533675627	96785.00496572614
16.202934629012383	87283.83993118705
16.36496397530251	91199.18863235592
16.528613615055534	82299.21711159842
16.69389975120609	67773.17805078084
16.86083874871815	58656.42396439585
17.02944713620533	85306.17612158309
17.199741607567383	55599.56227982169
17.37173902364306	50330.5639733279
17.54545641387949	52725.95046269007
17.720910978018285	57241.65315464631
17.898120087798468	54139.53274268841
18.077101288676452	57345.53138600409
18.257872301563214	44775.83554791951
18.44045102457885	52051.921071722434
18.62485553482464	43837.24704279743
18.811104090172883	72838.82102172342
18.999215131074614	35969.911389828776
19.189207282385357	38167.02279328465
19.381099355209216	30165.62354918199
19.574910348761303	32860.06766306596
19.77065945224892	33336.45922486863
19.968366046771408	45040.76172613673
20.16804970723912	40008.996287181035
20.369730204311512	30470.510900726647
20.573427506354626	25311.742063717906
20.779161781418175	32035.10746926906
20.98695339923236	23994.015655866307
21.19682293322468	21785.29889500321
21.408791162556927	31477.747534845905
21.622879074182496	22168.233230088386
21.839107864924323	17526.041068819555
22.057498943573567	19641.032298313166
22.278073933009303	23826.189505366598
22.500854672339393	16308.16959819796
22.72586321906279	32935.6422928299
22.953121851253417	15752.357312252372
23.18265306976595	26063.211222799004
23.41447960046361	22448.388036253178
23.648624396468247	12879.301221027174
23.88511064043293	11303.876999326794
24.12396174683726	26218.063613399645
24.365201364305634	24309.64058663288
24.608853377948687	22783.731790754686
24.854941911728176	17958.58945723724
25.103491330845458	9101.887764979472
25.354526244153913	9583.286360211097
25.608071506595454	18492.93070659934
25.864152221661406	12378.826872291158
26.122793743878024	13336.303818775496
26.384021681316803	14897.657076315794
26.64786189812997	7096.05841385073
26.91434051711127	11056.192942534633
27.18348392228238	13904.04042013098
27.455318761505207	16937.94925163186
27.72987194912026	13260.746380807766
28.007170668611465	6789.1500162592065
28.28724237529758	5800.316528082743
28.57011479905055	5847.928999330002
28.855815947041062	9707.107427289964
29.144374106511474	6469.785648957828
29.435817847576587	8329.359096964803
29.730176026052348	6304.881294673886
30.027477786312875	8958.380051140053
30.327752564176006	5370.13440640499
30.631030089817763	6148.431949074604
30.93734039071594	5330.014649831322
31.246713794623105	7286.044773342215
31.559180932569333	8383.033312912086
31.874772741895026	5804.693996593233
32.19352046931398	7525.860850858906
32.51545567400712	7127.4152776405035
32.84061023074719	3349.199105647672
33.169016333054664	3831.8592235841274
33.500706496385206	4339.307586343537
33.83571356134906	7504.014301678042
34.17407069696255	4526.885784295374
34.51581140393218	3104.1188381519537
34.8609695179715	4145.954877844575
35.209579213151216	3368.9190765662966
35.56167500528272	2535.150225879623
35.917291755335555	2301.480785053604
36.27646467288891	3456.793234217482
36.639229319617804	3573.6148202336526
37.005621612813975	5245.240209507128
37.37567782894212	2641.384270429359
37.74943460723154	3197.5251705303385
38.12692895330385	4735.058953265173
38.5081982428369	4267.075606269655
38.893280225265265	2409.7230661910485
39.28221302751791	1610.935284302378
39.6750351577931	3064.6749647283286
40.071785509371026	1736.2746807561475
40.47250336446474	1708.912010746202
40.87722839810939	1817.1608891725643
41.28600068209048	3270.2243264475305
41.69886068891139	3252.945083095023
42.1158492958005	2224.522153367762
42.53700778875851	2316.2322008411193
42.962377866646094	1620.1467162896595
43.392001645312554	1514.3205508573744
43.825921661765676	1162.2270816618025
44.264180878383335	1255.658791645649
44.70682268716717	1268.1069013999443
45.15389091403884	1358.390081571776
45.60542982317923	2027.0717751790426
46.06148412141103	1574.6681682501348
46.52209896262513	1137.3998682638787
46.98731995225138	1134.8642478434601
47.4571931517739	1686.853486720706
47.93176508329164	900.7074760889088
48.411082734124555	1523.9995031313997
48.8951935614658	880.3526494500219
49.38414549708046	737.4316711125188
49.877986952051266	827.4067047133481
50.37676682157178	799.1921518931923
50.88053448978749	771.8996017854034
51.38933983468537	745.4937574851127
51.903233233032225	719.9545469197388
52.422265565362544	695.2506334840384
52.946488221016175	671.3563791951825
53.47595310322633	648.253483848163
54.010712634258596	625.9091398785392
54.550819760601186	604.3045491187717
55.0963279582072	583.4157706410363
55.647291237789275	563.2191572519419
56.20376415016716	543.6964435844288
56.765801791668835	524.8221930079322
57.33345980958552	506.5796001244161
57.906794407681375	488.947907539021
58.48586235175819	471.90585356030203
59.070720975275776	455.4377879481107
59.661428185028534	439.5217538429652
60.25804246687882	424.1445448284457
60.860622891547614	409.28504958669197
61.46922912046309	394.9285524920235
62.083921411667724	381.0596855127303
62.7047606257844	367.659450332836
63.331808232042235	354.71741344202644
63.965126314362664	342.21521187853426
64.60477757750628	330.1392240181472
65.25082535328136	318.47651829621094
65.90333360681416	307.2115385090174
66.56236694288232	296.3350962698184
67.22799061231113	285.83062703022773
67.90027051843424	275.6878515080133
68.57927322361859	265.89445325898197
69.26506595585477	256.4385363342381
69.95771661541333	247.31015200189182
70.65729378156746	238.4967747662963
71.36386671938313	229.98895385991688
72.07750538657696	221.77641859363433
72.79828044044274	213.84869294062133
73.52626324484716	206.19750109737353
74.26152587729563	198.81214754705755
75.00414113606858	191.68520231047557
75.75418254742928	184.80691151567672
76.51172437290357	178.16880036020606
77.27684161663261	171.76402700034544
78.04961003279894	165.58279255281602
78.83010613312693	159.61936873660395
79.6184071944582	153.86543683578648
80.41459126640278	148.31367819148534
81.2187371790668	142.95808952357868
82.03092455085748	137.79082815738775
82.85123379636605	132.80668558661682
83.6797461343297	127.99842370902249
84.51654359567301	123.36031452167992
85.36170903162974	118.88705743075293
86.21532612194603	114.57185030209493
87.0774793831655	110.41059850974906
87.94825417699715	106.39690526771588
88.82773671876713	102.52626792402323
89.71601408595481	98.7935023846171
90.61317422681435	95.19364533713053
91.5193059690825	91.72282968643096
92.43449902877332	88.37556886166263
93.35884401906105	85.14849480554054
