#wavelength	surface flux
0.428837	1314.4621972473806
0.43312537	2546.8016457003237
0.43745662370000005	2964.0907559660336
0.4418311899370001	3449.0837359806756
0.44624950183637	4004.7656235997006
0.4507119968547338	4623.8488667399815
0.45521911682328114	5359.838495743149
0.4597713079915139	6199.832039728368
0.4643690210714291	7147.873252332743
0.4690127112821433	8219.470688301582
0.47370283839496474	9442.541234274096
0.47843986677891437	10770.688284269587
0.48322426544670355	12343.074005302171
0.48805650810117057	14167.033016544896
0.4929370731821824	16151.262626598706
0.49786644391400414	18327.605388444255
0.5028451083531442	20766.60300652283
0.5078735594366757	23275.448251103502
0.5129522950310424	25298.811932775534
0.5180818179813528	26871.162839244782
0.5232626361611664	33324.15580996176
0.5284952625227781	37657.873880585474
0.5337802151480058	41760.38949194611
0.5391180172994858	46173.19243302223
0.5445091974724807	50436.990531334974
0.5499542894472055	54192.58412062906
0.5554538323416777	56802.406226038576
0.5610083706650945	57082.8381105494
0.5666184543717453	52427.19352477636
0.5722846389154628	40272.05131216096
0.5780074853046174	19538.539734056205
0.5837875601576636	2884.615706045886
0.5896254357592402	49.28453442363331
0.5955216901168326	5506.6297245363385
0.6014769070180009	33750.580076599574
0.607491676088181	76841.12210944173
0.6135665928490629	119501.2514519857
0.6197022587775535	158963.08056902027
0.625899281365329	195829.9286577548
0.6321582741789823	230838.11614290293
0.6384798569207721	267221.70799140143
0.6448646554899798	303278.07441789075
0.6513133020448797	341266.05273116217
0.6578264350653285	379803.4518935908
0.6644046994159818	420699.4851684537
0.6710487464101416	381241.97617851925
0.677759233874243	513431.8028619183
0.6845368262129854	564984.6533698658
0.6913821944751153	612226.7532044057
0.6982960164198664	674017.7504225104
0.7052789765840651	733205.3969836413
0.7123317663499058	794305.8652470977
0.7194550840134049	848240.2716897681
0.7266496348535388	904188.6526806968
0.7339161312020743	959251.9331892505
0.741255292514095	995832.8800734261
0.748667845439236	966787.8704594725
0.7561545238936284	728163.8948803891
0.7637160691325647	123865.94392192035
0.7713532298238903	93633.89090165508
0.7790667621221293	803813.8664350383
0.7868574297433505	1408332.0977493343
0.7947260040407841	1131377.6930114992
0.8026732640811919	1920702.9722143668
0.8106999967220039	2075272.5156586892
0.8188069966892239	2274483.223365639
0.8269950666561161	2460497.7054133345
0.8352650173226772	2632383.6174169024
0.8436176674959041	2848128.541716446
0.852053844170863	3035981.100447753
0.8605743826125718	3240357.7271478386
0.8691801264386976	3445919.602352703
0.8778719277030844	3664302.264254402
0.8866506469801153	3886784.312324622
0.8955171534499164	4004564.469365102
0.9044723249844157	4411184.291023312
0.9135170482342599	4659432.103824369
0.9226522187166025	4869490.662160802
0.9318787409037684	4171412.0723593426
0.941197528312806	4910540.952363965
0.9506095035959342	4927896.54882584
0.9601155986318936	5014096.504346835
0.9697167546182125	5417600.138450707
0.9794139221643946	6310634.057599862
0.9892080613860387	6859940.128055214
0.9991001419998989	7357312.053979084
1.0090911434198981	7819402.874755488
1.019182054854097	8352648.720328565
1.0293738754026378	8598041.220810423
1.0396676141566643	9229258.287076425
1.050064290298231	9617693.487805497
1.0605649332012133	10109735.953737281
1.0711705825332256	10510811.093034858
1.0818822883585577	10987931.432174468
1.0927011112421434	11078864.204132479
1.1036281223545648	8705830.974509161
1.1146644035781104	8319948.603422054
1.1258110476138916	9110066.264175069
1.1370691580900303	9095489.770301906
1.1484398496709307	10576810.096089914
1.1599242481676402	8203804.020516878
1.1715234906493166	10755036.86835051
1.1832387255558097	13924342.13269713
1.1950711128113678	15301318.409724928
1.2070218239394814	16024597.808157276
1.2190920421788762	16917981.289071787
1.2312829626006652	17669036.648269877
1.2435957922266716	18343611.84119144
1.2560317501489384	18874408.069656253
1.2685920676504279	19350430.439465184
1.281277988326932	19766527.070561077
1.2940907682102014	19778446.02428989
1.3070316758923035	19811404.49761821
1.3201019926512265	20405647.927063756
1.3333030125777388	11720420.608956797
1.3466360427035162	4690001.581605507
1.3601024031305513	2269297.8890720564
1.373703427161857	6570109.257368015
1.3874404614334754	1883061.5536874174
1.4013148660478103	3621909.5500883264
1.4153280147082883	3186742.9705536924
1.4294812948553712	4436216.277933704
1.443776107803925	6506801.034639821
1.4582138688819641	12246580.37658707
1.4727960075707838	12301811.977254122
1.4875239676464918	16795460.394629132
1.5023992073229566	19110962.158249725
1.5174231993961862	21782923.019582193
1.532597431390148	24877161.851155523
1.5479234057040496	26876822.447334282
1.5634026397610903	27906203.068039406
1.579036666158701	27850976.341224965
1.594827032820288	30057839.320446968
1.610775303148491	30150946.145604845
1.6268830561799759	29331980.338587534
1.6431518867417756	31747240.945079047
1.6595834056091934	31158778.833782617
1.6761792396652853	30871665.148598127
1.6929410320619382	28413950.506411362
1.7098704423825577	28341763.622969378
1.7269691468063835	29286609.447760466
1.744238838274447	23841084.923824
1.7616812266571917	24599226.762292862
1.7792980389237634	8286486.149654044
1.7970910193130012	9902897.008558853
1.815061929506131	4532220.791467982
1.8332125488011928	3917587.858858633
1.8515446742892046	5643701.795119851
1.8700601210320964	4340459.843437763
1.8887607222424174	10834441.635998417
1.9076483294648416	3634142.333273776
1.92672481275949	3253994.9363866053
1.9459920608870853	5505219.419525299
1.9654519814959561	6411626.639659931
1.9851065013109155	13790296.558744326
2.0049575663240247	16923417.10958163
2.025007141987265	23102013.145947695
2.0452572134071376	30969279.3647609
2.065709785541209	34173807.058091
2.086366883396621	35355280.51059173
2.107230552230587	34906811.795141496
2.1283028577528933	35623032.08605781
2.1495858863304225	33626376.00562296
2.1710817451937263	32540442.75999689
2.1927925626456637	26420193.878761515
2.2147204882721203	20679087.678977355
2.2368676931548412	14901832.462591542
2.25923637008639	14347609.189832995
2.281828733787254	11793545.732461808
2.3046470211251266	8275031.17153531
2.327693491336378	4984926.747629059
2.3509704262497415	6038395.817557329
2.374480130512239	4731921.962213556
2.3982249318173614	6932241.1306443615
2.4222071811355352	9536624.833546415
2.4464292529468903	8041538.484285495
2.4708935454763594	5371532.510026859
2.4956024809311232	2821926.5212558126
2.5205585057404343	1428243.7099744126
2.5457640907978387	2282286.2603886514
2.5712217317058172	954525.8973331511
2.5969339490228753	875369.359720764
2.622903288513104	1997163.4221337049
2.6491323213982354	2778174.1322880983
2.6756236446122177	453282.1254599013
2.7023798810583397	1454416.6492661617
2.729403679868923	3299175.5206406685
2.7566977166676123	1866629.4129467788
2.7842646938342885	1457259.8294519358
2.812107340772631	1612431.9666358617
2.8402284141803578	2947946.54860085
2.8686306983221614	1905571.6358915425
2.897317005305383	2482916.5331940865
2.926290175358437	5169859.883940317
2.9555530771120213	5546132.581842217
2.9851086078831415	5556400.003731965
3.014959693961973	7147688.621584537
3.0451092909015927	6764037.979614427
3.0755603838106085	6440272.369322815
3.1063159876487147	4296516.067367303
3.137379147525202	2883244.9880822026
3.168752939000454	2121935.635762879
3.200440468390459	1760535.0289577309
3.232444873074363	1298967.9486366266
3.264769321805107	3566372.1736478833
3.297417015023158	3877549.36601416
3.330391185173389	721054.6402197215
3.3636950970251234	2599115.6641353443
3.397332047995375	2310347.9829477323
3.4313053684753285	1761015.533271284
3.465618422160081	1872802.0347265762
3.5002746063816828	2503638.867567869
3.5352773524454997	3456424.8082023333
3.570630125969955	4590377.317269762
3.606336427229654	6706039.205368547
3.6423997915019504	9123177.493993653
3.67882378941697	11822032.268751364
3.7156120273111397	12894929.868639192
3.7527681475842516	13927572.917665102
3.7902958290600934	13747909.517355634
3.8281987873506953	14659187.900740646
3.8664807752242023	14190784.907125415
3.905145582976444	14073349.523526024
3.9441970388062084	14192966.218880093
3.983639009194271	14230468.619300451
4.023475399286213	14494007.395807512
4.063710153279075	14420382.93557462
4.1043472548118665	14776417.969625268
4.145390727359985	14266862.803715853
4.186844634633585	13611908.469111625
4.2287130809799205	12909262.021457572
4.27100021178972	11978204.910420492
4.313710213907617	11494452.781277627
4.356847316046694	9085744.635078534
4.40041578920716	6323382.076001166
4.444419947099232	4739983.393153361
4.488864146570225	3847602.5778898043
4.533752788035927	3336584.0193631337
4.579090315916286	3538791.448536242
4.624881219075449	3751677.8835011423
4.671130031266204	4385330.99488143
4.717841331578866	3769489.082865632
4.765019744894654	3351087.3491982766
4.812669942343601	3625395.766607219
4.8607966417670365	4250170.66487346
4.9094046081847065	3800810.9884775574
4.958498654266554	3139955.0811397335
5.008083640809219	3729117.945833227
5.058164477217312	4425930.161221887
5.108746121989485	4007678.1085883463
5.15983358320938	3242094.1789325406
5.211431919041474	2425448.7020099317
5.263546238231889	3164187.3116880264
5.316181700614208	3752431.4651250043
5.36934351762035	2127584.15612585
5.423036952796553	1597061.1499233004
5.4772673223245185	1814923.2322471018
5.532039995547764	1939436.1532826729
5.587360395503242	1472085.6274823244
5.643233999458275	1266749.46934774
5.6996663394528575	1158236.396702174
5.756663002847385	1162821.4746959074
5.814229632875859	1256547.9886701298
5.872371929204618	1019110.9754391942
5.931095648496664	1112301.4858278646
5.990406604981631	1466370.160435831
6.050310671031448	1150906.3650001124
6.110813777741763	1834703.687720334
6.17192191551918	1269219.7694809856
6.233641134674372	2664742.7978633195
6.295977546021115	2856492.775789492
6.358937321481327	1950522.9987532545
6.42252669469614	784425.8906527903
6.486751961643101	706818.607224414
6.551619481259532	820861.3212806832
6.617135676072128	678702.4148982767
6.683307032832849	1003795.37552278
6.750140103161177	1114572.4567775866
6.81764150419279	1072552.4244078016
6.885817919234718	888747.2144250752
6.954676098427065	1080119.1513704266
7.024222859411336	768150.5495152489
7.094465088005449	1004753.0348540541
7.165409738885503	773177.9889224895
7.237063836274358	789995.5962232042
7.309434474637103	713664.9804771902
7.382528819383473	658393.234433691
7.456354107577308	616434.8771254745
7.530917648653081	803509.9104562139
7.606226825139612	776340.2283542637
7.682289093391009	511294.46368137235
7.759111984324918	647599.0290792148
7.836703104168168	732424.4923223145
7.91507013520985	699821.9718190416
7.994220836561947	795971.9347058611
8.074163044927568	754737.3887291942
8.154904675376844	768037.5625563223
8.23645372213061	841661.3462674256
8.318818259351918	904554.1321064793
8.402006441945437	928748.432606405
8.486026506364892	1067586.9605733852
8.57088677142854	1139953.4084081699
8.656595639142825	1242760.6809368047
8.743161595534254	1291600.1917866443
8.830593211489598	1411236.5164644374
8.918899143604493	1424304.540970734
9.00808813504054	1411523.2132788121
9.098169016390944	1504869.8291251322
9.189150706554853	1535424.575165989
9.281042213620402	1520703.0621923376
9.373852635756606	1414637.5344360317
9.467591162114172	1412485.5244453056
9.562267073735315	1533369.5997074929
9.657889744472667	1394575.4788117784
9.754468641917395	1486148.893838882
9.852013328336568	1190355.1672198956
9.950533461619933	1370275.6687544188
10.050038796236134	1289513.9427426693
10.150539184198495	1300569.027211248
10.252044576040479	1174072.2889554454
10.354565021800884	984944.1071934372
10.458110672018893	983119.1136272105
10.562691778739081	1059782.4605473545
10.668318696526473	1058333.7268820957
10.775001883491738	1011712.2439548108
10.882751902326655	883502.6330560053
10.991579421349924	681179.765954586
11.101495215563421	912864.2919241514
11.212510167719055	848803.9250351746
11.324635269396246	793305.4529871907
11.43788162209021	823220.5514331944
11.552260438311112	632671.5594659117
11.667783042694223	633022.2625219328
11.784460873121166	602545.2860844873
11.902305481852377	663917.1520257536
12.0213285366709	661590.0610444774
12.14154182203761	671563.8179950424
12.262957240257986	510567.70513705135
12.385586812660566	422741.81701465516
12.509442680787172	438801.57083857025
12.634537107595044	495137.41715333035
12.760882478670995	462807.7841306645
12.888491303457704	464729.9035031715
13.01737621649228	373583.7335616453
13.147549978657205	389513.6041158327
13.279025478443776	302905.6168151769
13.411815733228213	296499.8133397865
13.545933890560496	346738.81037744577
13.681393229466101	308411.76467667456
13.818207161760762	335898.529932503
13.956389233378369	298701.8592484649
14.095953125712155	315374.0729735811
14.236912656969274	271080.784324968
14.379281783538968	216301.4638325007
14.523074601374358	205968.43986697157
14.6683053473881	249656.3222874705
14.814988400861985	223465.1721316037
14.963138284870602	201529.55963040565
15.11276966771931	225041.08987786414
15.263897364396504	244036.8470827981
15.41653633804047	185718.43348007186
15.570701701420873	151301.59089732537
15.726408718435081	138030.89239058326
15.883672805619431	219721.30437468566
16.042509533675627	159306.63981815192
16.202934629012383	148350.77353344279
16.36496397530251	136614.2133872374
16.528613615055534	133660.70627233243
16.69389975120609	115863.91370801635
16.86083874871815	117372.01476535361
17.02944713620533	130060.6584609868
17.199741607567383	98771.00051295091
17.37173902364306	90127.463495389
17.54545641387949	101674.84509692091
17.720910978018285	91068.90295014989
17.898120087798468	86059.98940538125
18.077101288676452	90736.44927119323
18.257872301563214	87384.313741043
18.44045102457885	82071.64355497005
18.62485553482464	71811.09842742934
18.811104090172883	107952.59912865922
18.999215131074614	65377.11631886438
19.189207282385357	67857.97769646815
19.381099355209216	54821.48276403564
19.574910348761303	56538.82839711574
19.77065945224892	61525.83038381637
19.968366046771408	73646.31346265605
20.16804970723912	60876.13762168359
20.369730204311512	51050.71115622003
20.573427506354626	46570.411621587125
20.779161781418175	52881.692645800766
20.98695339923236	41641.65859155815
21.19682293322468	42210.40278653566
21.408791162556927	53766.89118694542
21.622879074182496	37592.516246539686
21.839107864924323	35982.92108239262
22.057498943573567	36201.698640727605
22.278073933009303	38413.43519922139
22.500854672339393	30755.628911046624
22.72586321906279	51020.8305986708
22.953121851253417	28571.430660344504
23.18265306976595	46714.69008104107
23.41447960046361	36603.97955161616
23.648624396468247	25277.437982361495
23.88511064043293	23256.788753491495
24.12396174683726	39312.17884121352
24.365201364305634	35594.363015548945
24.608853377948687	33136.33280161752
24.854941911728176	27783.95495443679
25.103491330845458	18800.06356025833
25.354526244153913	18681.662316760692
25.608071506595454	26800.087687422747
25.864152221661406	25182.24402392452
26.122793743878024	22443.523108664143
26.384021681316803	23934.112797200087
26.64786189812997	14824.640390455323
26.91434051711127	20051.78751624972
27.18348392228238	21790.494863508688
27.455318761505207	27078.0621711076
27.72987194912026	20675.590001092074
28.007170668611465	13685.98354535829
28.28724237529758	12216.835004485047
28.57011479905055	12072.807509483862
28.855815947041062	17032.34578759412
29.144374106511474	12863.72345553806
29.435817847576587	13550.513739706788
29.730176026052348	12709.362069865469
30.027477786312875	13977.85449654702
30.327752564176006	10329.739289739535
30.631030089817763	10892.906465128664
30.93734039071594	9876.264899865475
31.246713794623105	11083.613432606577
31.559180932569333	12837.622142612543
31.874772741895026	9930.934807282674
32.19352046931398	12156.063974088527
32.51545567400712	12126.853162755624
32.84061023074719	7155.600836752301
33.169016333054664	7632.7637280017525
33.500706496385206	7787.718865346121
33.83571356134906	11539.628513336118
34.17407069696255	7886.307465044384
34.51581140393218	6480.541955659624
34.8609695179715	6723.962711034935
35.209579213151216	6121.9064451056165
35.56167500528272	5439.682911479639
35.917291755335555	5132.664174933722
36.27646467288891	6612.120006129496
36.639229319617804	5920.153197693977
37.005621612813975	7583.000485780399
37.37567782894212	4840.306723533267
37.74943460723154	5447.502526214481
38.12692895330385	6894.470818410925
38.5081982428369	6278.1536564426015
38.893280225265265	4307.8999352238125
39.28221302751791	3659.1148842600164
39.6750351577931	5102.478470799326
40.071785509371026	3542.2632025881244
40.47250336446474	3553.671231225504
40.87722839810939	3501.2922360119633
41.28600068209048	4742.534983338066
41.69886068891139	4793.0128699250545
42.1158492958005	4181.815335789138
42.53700778875851	3787.2786314499995
42.962377866646094	2888.4611341809823
43.392001645312554	2741.317878294682
43.825921661765676	2540.551929012244
44.264180878383335	2578.82060199566
44.70682268716717	2511.0999280777
45.15389091403884	2621.525733026314
45.60542982317923	3017.1745812727477
46.06148412141103	2552.999469272133
46.52209896262513	2133.365517126396
46.98731995225138	2064.8494273581937
47.4571931517739	2733.1604708037057
47.93176508329164	1906.213943927128
48.411082734124555	2382.6623814065442
48.8951935614658	1773.8367076174168
49.38414549708046	1607.312855723468
49.877986952051266	1662.1638503149866
50.37676682157178	1602.0273761463345
50.88053448978749	1544.0257139287037
51.38933983468537	1488.0726264180782
51.903233233032225	1434.1054151116684
52.422265565362544	1382.0527983275779
52.946488221016175	1331.84381477543
53.47595310322633	1283.4277205857384
54.010712634258596	1236.7330017668205
54.550819760601186	1191.7008897103394
55.0963279582072	1148.277055592581
55.647291237789275	1106.4008224624308
56.20376415016716	1066.0304331596315
56.765801791668835	1027.0938279179502
57.33345980958552	989.5573875186757
57.906794407681375	953.3674334390182
58.48586235175819	918.4717268533002
59.070720975275776	884.8345543230853
59.661428185028534	852.4033758713252
60.25804246687882	821.1433632536026
60.860622891547614	791.0059994186845
61.46922912046309	761.9556760362312
62.083921411667724	733.9561468217621
62.7047606257844	706.9631258629155
63.331808232042235	680.9516656717717
63.965126314362664	655.8788251061428
64.60477757750628	631.7133799756291
65.25082535328136	608.4250572136848
65.90333360681416	585.9783518154131
66.56236694288232	564.3508700494208
67.22799061231113	543.5068769271769
67.90027051843424	523.42089019074
68.57927322361859	504.0666198497817
69.26506595585477	485.4154889221629
69.95771661541333	467.44669309668
70.65729378156746	450.1315010772882
71.36386671938313	433.44877282906737
72.07750538657696	417.37550765563105
72.79828044044274	401.88889456359186
73.52626324484716	386.9703810296238
74.26152587729563	372.59662572959473
75.00414113606858	358.75059195397534
75.75418254742928	345.41164152146206
76.51172437290357	332.5612967194863
77.27684161663261	320.18412003599593
78.04961003279894	308.2597576309885
78.83010613312693	296.7757887678507
79.6184071944582	285.7130413302701
80.41459126640278	275.05704662883824
81.2187371790668	264.79482354869
82.03092455085748	254.90950774031455
82.85123379636605	245.3900148036242
83.6797461343297	236.22067246270902
84.51654359567301	227.3899385882777
85.36170903162974	218.8861882502453
86.21532612194603	210.69574039149998
87.0774793831655	202.8092656678404
87.94825417699715	195.21402897866471
88.82773671876713	187.9003943899886
89.71601408595481	180.85778223060655
90.61317422681435	174.0755028901131
91.5193059690825	167.5459683541808
92.43449902877332	161.25755765683587
