#wavelength	surface flux
0.428837	299.5115064210723
0.43312537	586.6503451092814
0.43745662370000005	691.6034120664976
0.4418311899370001	814.4602405226258
0.44624950183637	957.0321134492764
0.4507119968547338	1120.1717501873236
0.45521911682328114	1307.4581044627112
0.4597713079915139	1531.2920477556056
0.4643690210714291	1784.3577883731125
0.4690127112821433	2073.196404424249
0.47370283839496474	2404.1150814754387
0.47843986677891437	2774.231154012256
0.48322426544670355	3201.250450869458
0.48805650810117057	3691.552316328787
0.4929370731821824	4235.345070250665
0.49786644391400414	4837.4796232113285
0.5028451083531442	5501.83645349285
0.5078735594366757	6213.4324144298325
0.5129522950310424	6908.101512880349
0.5180818179813528	7604.662403666302
0.5232626361611664	8763.24780709915
0.5284952625227781	9682.600388010094
0.5337802151480058	10508.873149659645
0.5391180172994858	11205.314266096711
0.5445091974724807	11627.210470081822
0.5499542894472055	11605.22297957734
0.5554538323416777	10905.111583952723
0.5610083706650945	9311.925099309638
0.5666184543717453	6764.058277943552
0.5722846389154628	3748.668264224277
0.5780074853046174	1278.7446818490423
0.5837875601576636	173.8682822043643
0.5896254357592402	6.135705550891402
0.5955216901168326	344.6076720400485
0.6014769070180009	2476.4004801051647
0.607491676088181	7902.9215264024315
0.6135665928490629	16630.61897125164
0.6197022587775535	27727.404582114457
0.625899281365329	40289.91854038742
0.6321582741789823	53774.693867275695
0.6384798569207721	68010.02545172373
0.6448646554899798	82672.4980350314
0.6513133020448797	98417.3252059703
0.6578264350653285	114466.42289620278
0.6644046994159818	131713.20536265874
0.6710487464101416	119665.8532839646
0.677759233874243	169904.8905135976
0.6845368262129854	190994.09651124245
0.6913821944751153	209281.7956526529
0.6982960164198664	234012.12518011674
0.7052789765840651	256895.76475478185
0.7123317663499058	279430.2160428241
0.7194550840134049	293754.37425353646
0.7266496348535388	305547.80608343746
0.7339161312020743	315859.96430579666
0.741255292514095	308313.3809083635
0.748667845439236	259607.51295927307
0.7561545238936284	142788.193768876
0.7637160691325647	15391.335591774163
0.7713532298238903	11720.045215524666
0.7790667621221293	153269.10215152844
0.7868574297433505	399211.84602585144
0.7947260040407841	338471.22019487765
0.8026732640811919	709125.8681535025
0.8106999967220039	794833.2844942244
0.8188069966892239	916786.0117081505
0.8269950666561161	1018176.5094245848
0.8352650173226772	1103529.5686911668
0.8436176674959041	1234550.3079178666
0.852053844170863	1325419.6639931332
0.8605743826125718	1466849.592811784
0.8691801264386976	1582220.4088229318
0.8778719277030844	1689922.6180475357
0.8866506469801153	1766944.2045717519
0.8955171534499164	1755082.8669011514
0.9044723249844157	2064323.9242304594
0.9135170482342599	2189673.2505264087
0.9226522187166025	2281942.0105070276
0.9318787409037684	1531646.0418908691
0.941197528312806	2035667.960086419
0.9506095035959342	1921462.4569294737
0.9601155986318936	1917264.2748456174
0.9697167546182125	2200204.9995503784
0.9794139221643946	2875715.2139460463
0.9892080613860387	3300080.7985891197
0.9991001419998989	3686368.3594288495
1.0090911434198981	3995976.203482734
1.019182054854097	4337783.091280707
1.0293738754026378	4425306.505837847
1.0396676141566643	4870843.109570781
1.050064290298231	5085284.958105718
1.0605649332012133	5398315.889882729
1.0711705825332256	5614982.941755036
1.0818822883585577	5908373.762314148
1.0927011112421434	5816269.950011392
1.1036281223545648	3456991.218272351
1.1146644035781104	2985812.826404157
1.1258110476138916	3134588.534499153
1.1370691580900303	3448749.0384339155
1.1484398496709307	4247952.352454862
1.1599242481676402	2201902.0038833437
1.1715234906493166	4132544.8816935765
1.1832387255558097	6997590.986971358
1.1950711128113678	8297561.435232854
1.2070218239394814	8910349.756187858
1.2190920421788762	9598479.834189387
1.2312829626006652	10177751.4718194
1.2435957922266716	10677073.318354057
1.2560317501489384	11067754.906274606
1.2685920676504279	11307253.531663831
1.281277988326932	11479467.81207222
1.2940907682102014	11132340.156025326
1.3070316758923035	10809713.74540243
1.3201019926512265	11286145.0167674
1.3333030125777388	4278971.456703397
1.3466360427035162	783019.1275463396
1.3601024031305513	225568.26318972145
1.373703427161857	1163724.2146359761
1.3874404614334754	150290.4748187484
1.4013148660478103	552252.8739281469
1.4153280147082883	416063.81543344713
1.4294812948553712	651293.5639455251
1.443776107803925	1366414.0921425747
1.4582138688819641	4015829.2068055673
1.4727960075707838	3677333.0933665745
1.4875239676464918	6721310.382299713
1.5023992073229566	8135774.415257854
1.5174231993961862	10673088.365487702
1.532597431390148	13658546.538161725
1.5479234057040496	15714880.908297675
1.5634026397610903	16885355.50530815
1.579036666158701	16102098.502808293
1.594827032820288	18204532.899964664
1.610775303148491	17092583.855987035
1.6268830561799759	13209669.327767383
1.6431518867417756	17182747.941060465
1.6595834056091934	15844841.777353447
1.6761792396652853	13874159.010979928
1.6929410320619382	10163779.505422562
1.7098704423825577	10523337.504236752
1.7269691468063835	12805455.039595049
1.744238838274447	9550837.743913636
1.7616812266571917	10062029.729590314
1.7792980389237634	1790573.851428514
1.7970910193130012	3033620.1647614925
1.815061929506131	882589.9897350573
1.8332125488011928	579867.6247562233
1.8515446742892046	1259916.416928286
1.8700601210320964	594792.0020430747
1.8887607222424174	3072548.0751912445
1.9076483294648416	370083.49505237094
1.92672481275949	385065.2175535188
1.9459920608870853	1181253.7915535946
1.9654519814959561	1554322.8851682812
1.9851065013109155	4861228.791600086
2.0049575663240247	6998078.515689465
2.025007141987265	10863740.295598226
2.0452572134071376	17824084.246332232
2.065709785541209	20602473.554309055
2.086366883396621	21237828.762422554
2.107230552230587	20041364.67507279
2.1283028577528933	18883035.813459367
2.1495858863304225	14935993.138464345
2.1710817451937263	13270062.606891325
2.1927925626456637	7009278.001772253
2.2147204882721203	3307604.156247554
2.2368676931548412	1450951.4931994278
2.25923637008639	1383191.5615797574
2.281828733787254	1122684.0611725135
2.3046470211251266	1753639.3056207944
2.327693491336378	713894.1369732466
2.3509704262497415	696682.6679566551
2.374480130512239	545542.872323816
2.3982249318173614	1000602.087381014
2.4222071811355352	1996006.1387144013
2.4464292529468903	2021736.2217853167
2.4708935454763594	1437324.830566824
2.4956024809311232	681252.3762244793
2.5205585057404343	261796.1678444939
2.5457640907978387	530215.3716497384
2.5712217317058172	161183.5505980782
2.5969339490228753	110642.51424496344
2.622903288513104	413758.61863886955
2.6491323213982354	683392.0963760056
2.6756236446122177	49393.69153056803
2.7023798810583397	302253.0914171558
2.729403679868923	957539.1684712821
2.7566977166676123	313954.5332481587
2.7842646938342885	243146.50055594396
2.812107340772631	314162.1033972858
2.8402284141803578	771537.7238238106
2.8686306983221614	473597.0709168769
2.897317005305383	672826.2048090689
2.926290175358437	1702192.3191026864
2.9555530771120213	1998126.634266875
2.9851086078831415	2100218.311145255
3.014959693961973	2552512.701660149
3.0451092909015927	2145681.8731283154
3.0755603838106085	2321880.7557345377
3.1063159876487147	1450125.3354079945
3.137379147525202	971255.2572584241
3.168752939000454	637099.3368440262
3.200440468390459	482849.85886216525
3.232444873074363	312109.1461706766
3.264769321805107	954240.4636687892
3.297417015023158	973804.9013067619
3.330391185173389	165237.27748898044
3.3636950970251234	725544.1748150296
3.397332047995375	580255.6608347727
3.4313053684753285	426388.2237839129
3.465618422160081	506148.0810493704
3.5002746063816828	781930.6107576913
3.5352773524454997	1033181.3919831633
3.570630125969955	1466729.7165691385
3.606336427229654	1998856.7861776915
3.6423997915019504	2831839.1189315803
3.67882378941697	3861676.610913609
3.7156120273111397	4298372.405999276
3.7527681475842516	5475715.630499582
3.7902958290600934	5533226.275328166
3.8281987873506953	7476286.529920116
3.8664807752242023	7592869.416325775
3.905145582976444	7981407.054520388
3.9441970388062084	9014022.391252214
3.983639009194271	9254676.774403317
4.023475399286213	9880205.720127108
4.063710153279075	10129833.499638798
4.1043472548118665	9907535.302931696
4.145390727359985	9352666.079438044
4.186844634633585	8868268.111229971
4.2287130809799205	7989157.8125802865
4.27100021178972	7344763.772700456
4.313710213907617	7262205.127119602
4.356847316046694	6154117.874855842
4.40041578920716	5353997.944919893
4.444419947099232	4714226.49457973
4.488864146570225	4338063.8185540475
4.533752788035927	3888868.2320577553
4.579090315916286	4064577.521080498
4.624881219075449	3828618.4789710343
4.671130031266204	3911091.1517175403
4.717841331578866	3455109.924083235
4.765019744894654	3635374.0904783974
4.812669942343601	3489110.0483371094
4.8607966417670365	3706228.9548426387
4.9094046081847065	3314181.159074593
4.958498654266554	1891499.441912899
5.008083640809219	2409801.1006899886
5.058164477217312	3217430.5716377045
5.108746121989485	2482749.261981575
5.15983358320938	1647045.6742171422
5.211431919041474	1161191.857796156
5.263546238231889	1603143.838302293
5.316181700614208	2029199.8908789912
5.36934351762035	953170.3498653448
5.423036952796553	664810.5273841633
5.4772673223245185	723386.6318458616
5.532039995547764	832377.2331243115
5.587360395503242	566769.2246580798
5.643233999458275	436097.2535006453
5.6996663394528575	415547.21097015805
5.756663002847385	393245.7454437307
5.814229632875859	484097.7115301297
5.872371929204618	327448.3992533055
5.931095648496664	415697.43666396535
5.990406604981631	560793.7467341297
6.050310671031448	455705.5143147324
6.110813777741763	553870.1435864797
6.17192191551918	483137.5799986615
6.233641134674372	1364706.7651113698
6.295977546021115	1506491.3202833303
6.358937321481327	881990.4361677377
6.42252669469614	264076.79419471417
6.486751961643101	231677.54611426327
6.551619481259532	291488.5768774742
6.617135676072128	250400.68965814405
6.683307032832849	443067.9177611749
6.750140103161177	547895.3662799689
6.81764150419279	542069.6277317108
6.885817919234718	374012.326479371
6.954676098427065	554962.4570160843
7.024222859411336	319163.1989049908
7.094465088005449	514009.08364528767
7.165409738885503	339080.52659144555
7.237063836274358	374682.3949976416
7.309434474637103	303669.4897768793
7.382528819383473	257759.8245535746
7.456354107577308	248536.37820281135
7.530917648653081	347493.99636820477
7.606226825139612	379155.37518083444
7.682289093391009	191235.48875062572
7.759111984324918	300052.81143952406
7.836703104168168	323741.4602479093
7.91507013520985	304472.1295855272
7.994220836561947	362036.9818369092
8.074163044927568	366003.3583886269
8.154904675376844	399968.61219702056
8.23645372213061	464203.51267120085
8.318818259351918	517478.0982587923
8.402006441945437	541089.2314204023
8.486026506364892	660559.6684324328
8.57088677142854	717736.42633749
8.656595639142825	791072.5728951686
8.743161595534254	861014.4463073292
8.830593211489598	939071.8343671584
8.918899143604493	908313.7134922576
9.00808813504054	945256.6440266044
9.098169016390944	1035883.4263228885
9.189150706554853	1074499.9171185568
9.281042213620402	1031934.7181523638
9.373852635756606	878076.2761527483
9.467591162114172	1055707.162354072
9.562267073735315	1177451.7772605068
9.657889744472667	952975.8772370805
9.754468641917395	1129755.4888828935
9.852013328336568	862313.3228491668
9.950533461619933	1095091.8238378193
10.050038796236134	998710.546449584
10.150539184198495	1057361.1988430799
10.252044576040479	902677.2596852578
10.354565021800884	613762.3391952716
10.458110672018893	695311.2427611692
10.562691778739081	803994.4388259855
10.668318696526473	756118.0848630562
10.775001883491738	716426.4736727137
10.882751902326655	669770.8175755212
10.991579421349924	493662.63853862975
11.101495215563421	712245.5957162408
11.212510167719055	571752.6879585732
11.324635269396246	601794.595913142
11.43788162209021	660607.3378011516
11.552260438311112	424333.3435430231
11.667783042694223	471493.3446020142
11.784460873121166	450137.77295189607
11.902305481852377	510413.3967401638
12.0213285366709	522540.71026121837
12.14154182203761	555116.8945592343
12.262957240257986	391743.11847110745
12.385586812660566	316533.7127226684
12.509442680787172	316526.18855764257
12.634537107595044	389971.80367000727
12.760882478670995	361797.1271443137
12.888491303457704	340796.40001583035
13.01737621649228	282802.0126057812
13.147549978657205	305341.91671375517
13.279025478443776	221457.21869066817
13.411815733228213	214838.77360063582
13.545933890560496	278111.3193615985
13.681393229466101	232543.76879659493
13.818207161760762	245517.70723674554
13.956389233378369	231999.42678686118
14.095953125712155	244798.8611325739
14.236912656969274	212744.67352094466
14.379281783538968	155207.45594261386
14.523074601374358	147182.58882089934
14.6683053473881	197966.43000121135
14.814988400861985	177948.52046677485
14.963138284870602	157575.20255017502
15.11276966771931	175497.96886962454
15.263897364396504	195716.23380774862
15.41653633804047	149759.40056990378
15.570701701420873	109499.6728801646
15.726408718435081	96140.11931448449
15.883672805619431	179299.4048678013
16.042509533675627	121863.39033987443
16.202934629012383	112464.93148692267
16.36496397530251	109198.94310865122
16.528613615055534	102608.94282960627
16.69389975120609	86394.1933616575
16.86083874871815	81043.79614357307
17.02944713620533	102718.67628830811
17.199741607567383	72154.30117942358
17.37173902364306	65754.61639493116
17.54545641387949	71782.39338763228
17.720910978018285	70500.38452089443
17.898120087798468	66357.29415330081
18.077101288676452	70549.648124358
18.257872301563214	60932.63951251481
18.44045102457885	63964.611827155815
18.62485553482464	54625.00816586231
18.811104090172883	86966.62949206386
18.999215131074614	47273.72667989093
19.189207282385357	49325.3351271593
19.381099355209216	39229.00445629081
19.574910348761303	41716.580858304565
19.77065945224892	44059.27100616043
19.968366046771408	56320.06573729593
20.16804970723912	48069.85330679123
20.369730204311512	38261.36273902291
20.573427506354626	33231.09765212254
20.779161781418175	39971.221247806665
20.98695339923236	30453.475172897815
21.19682293322468	29506.567589335384
21.408791162556927	40159.71047335529
21.622879074182496	27823.13825001156
21.839107864924323	24343.10616233792
22.057498943573567	25709.30640641429
22.278073933009303	29362.353441416682
22.500854672339393	21552.589249812998
22.72586321906279	40487.763490607096
22.953121851253417	20357.9828646768
23.18265306976595	34719.25686550676
23.41447960046361	28071.45090218194
23.648624396468247	17341.141172018157
23.88511064043293	15663.25061336584
24.12396174683726	31547.865362976587
24.365201364305634	28811.840062939576
24.608853377948687	27020.45618952032
24.854941911728176	21711.267621556926
25.103491330845458	12557.09332332284
25.354526244153913	12819.422715522387
25.608071506595454	21826.217283423204
25.864152221661406	17370.366250832445
26.122793743878024	16795.75707008208
26.384021681316803	18537.91673071638
26.64786189812997	9839.700977380915
26.91434051711127	14553.661345619254
27.18348392228238	16964.23649439927
27.455318761505207	21160.422395606154
27.72987194912026	16173.929873785075
28.007170668611465	9353.020243729743
28.28724237529758	8112.758902110388
28.57011479905055	8108.933412328201
28.855815947041062	12501.765023962447
29.144374106511474	8833.440836518988
29.435817847576587	10317.028020452328
29.730176026052348	8706.8959360902
30.027477786312875	10877.44175239591
30.327752564176006	7201.21697684718
30.631030089817763	7932.698536617833
30.93734039071594	7029.055471148508
31.246713794623105	8722.637776629468
31.559180932569333	10112.736435387791
31.874772741895026	7339.087717246178
32.19352046931398	9402.707294388749
32.51545567400712	9006.16557069995
32.84061023074719	4778.170292147497
33.169016333054664	5274.739199723286
33.500706496385206	5603.52422918026
33.83571356134906	9135.844684626527
34.17407069696255	5761.828153164119
34.51581140393218	4372.626293707687
34.8609695179715	5094.012515767312
35.209579213151216	4392.666909897524
35.56167500528272	3627.23073539411
35.917291755335555	3378.632680832074
36.27646467288891	4668.791104648106
36.639229319617804	4446.419687970609
37.005621612813975	6165.682693681805
37.37567782894212	3465.5357977331937
37.74943460723154	4052.179072229789
38.12692895330385	5599.535387335467
38.5081982428369	5056.287501768104
38.893280225265265	3096.1545640342338
39.28221302751791	2405.0842608855287
39.6750351577931	3891.007433464738
40.071785509371026	2426.598228906447
40.47250336446474	2420.497541163768
40.87722839810939	2458.8582076121265
41.28600068209048	3845.633643258025
41.69886068891139	3842.726247719863
42.1158492958005	3019.611500782087
42.53700778875851	2876.2500913996173
42.962377866646094	2084.0965046392494
43.392001645312554	1964.5549098855172
43.825921661765676	1698.8114952048254
44.264180878383335	1761.7514859716061
44.70682268716717	1744.2197895913116
45.15389091403884	1852.6277165691308
45.60542982317923	2410.2392768579575
46.06148412141103	1943.0106522253318
46.52209896262513	1511.0375576071558
46.98731995225138	1480.0465637509435
47.4571931517739	2126.797505477214
47.93176508329164	1291.0741215809837
48.411082734124555	1861.7129777699133
48.8951935614658	1232.3474366128644
49.38414549708046	1080.9831073386574
49.877986952051266	1148.7891944250578
50.37676682157178	1108.3655849388283
50.88053448978749	1069.3236439907298
51.38933983468537	1031.60812657212
51.903233233032225	995.1841516528874
52.422265565362544	960.0035707952917
52.946488221016175	926.0260754164731
53.47595310322633	893.221200418515
54.010712634258596	861.5391683069041
54.550819760601186	830.9488349626434
55.0963279582072	801.4128783515937
55.647291237789275	772.8949722891554
56.20376415016716	745.3658086762528
56.765801791668835	718.7868081198947
57.33345980958552	693.1315528563857
57.906794407681375	668.3671642604976
58.48586235175819	644.4620458506022
59.070720975275776	621.391902823221
59.661428185028534	599.1226655366103
60.25804246687882	577.6338792367802
60.860622891547614	556.894626644108
61.46922912046309	536.8812126402172
62.083921411667724	517.5706615224586
62.7047606257844	498.93469684425355
63.331808232042235	480.9575893113478
63.965126314362664	463.61075367152654
64.60477757750628	446.87463492455504
65.25082535328136	430.72958250242266
65.90333360681416	415.1523223870652
66.56236694288232	400.12849720437634
67.22799061231113	385.6348631534269
67.90027051843424	371.6547120109359
68.57927322361859	358.1708516838827
69.26506595585477	345.16463304286845
69.95771661541333	332.62249165025685
70.65729378156746	320.5254022899443
71.36386671938313	308.85935091760854
72.07750538657696	297.609506905885
72.79828044044274	286.76045282190415
73.52626324484716	276.30013791715163
74.26152587729563	266.212867042314
75.00414113606858	256.4877545273202
75.75418254742928	247.11091493613932
76.51172437290357	238.0696601881308
77.27684161663261	229.35414348996804
78.04961003279894	220.95051158981803
78.83010613312693	212.8506191193972
79.6184071944582	205.04174209289897
80.41459126640278	197.51396402981632
81.2187371790668	190.2583584778657
82.03092455085748	183.264054951955
82.85123379636605	176.5232533093935
83.6797461343297	170.02564404088164
84.51654359567301	163.76326730909705
85.36170903162974	157.72814154277063
86.21532612194603	151.9111188904987
87.0774793831655	146.30588884092498
87.94825417699715	140.90396038048354
88.82773671876713	135.69841532505745
89.71601408595481	130.68236236723976
90.61317422681435	125.84823486060752
91.5193059690825	121.1912847140105
92.43449902877332	116.70321258448705
93.35884401906105	112.37947467101137
