#wavelength	surface flux
0.6450077295303345	0.030386710916001557
0.6472567915916443	0.04694553477300546
0.6494921445846558	0.059191374999935785
0.6517150402069092	0.065467950653561
0.6539263725280762	0.07193766937941176
0.6561272740364075	0.07905585977889876
0.6583186388015747	0.08693982833129076
0.6605015397071838	0.095727333438559
0.6626768708229065	0.10558153272119596
0.6648455858230591	0.11670187598422233
0.6670085787773132	0.12931938148690492
0.6691668033599854	0.14367008082539992
0.6713210344314575	0.1599767121158765
0.6734722256660461	0.17846388432473828
0.6756211519241333	0.19937078379587897
0.6777685880661011	0.22294395431909753
0.6799154281616211	0.24943425528624447
0.6820623278617859	0.2791066425900061
0.6842101216316223	0.3122326602122303
0.6863595843315125	0.3490792614714206
0.688511312007904	0.38990009648714363
0.6906660795211792	0.4349030638257778
0.6928245425224304	0.4843299942070238
0.6949873566627502	0.5384689953973502
0.6971551775932312	0.5974185018966222
0.6993286609649658	0.661181046121066
0.7015084028244019	0.7298786848071868
0.7036949396133423	0.8036679936889759
0.7058889269828796	0.8827266594974477
0.7080909013748169	0.967269481240642
0.710301399230957	1.0575898494701172
0.712520956993103	1.1539712500399912
0.7147500514984131	1.256535099560242
0.7169892191886902	1.3656943959714
0.7192389369010925	1.4822403800169615
0.7214996814727783	1.6064973269208747
0.723771870136261	1.7386858606619313
0.7260559797286987	1.8795612072626033
0.7283523678779602	2.0298569825612742
0.7306615710258484	2.190471006558071
0.7329838871955872	2.362804283800251
0.7353196740150452	2.5476464799146803
0.7376693487167358	2.745956906557947
0.7400332689285278	2.959432261423468
0.7424117922782898	3.1897426085250378
0.7448052167892456	3.4390481991012805
0.7472138404846191	3.7097515655312954
0.7496379613876343	4.004393973773679
0.7520779371261597	4.326160233435312
0.7545340061187744	4.678799258069279
0.7570064663887024	5.066667053163017
0.7594954967498779	5.49471618752144
0.7620013952255249	5.967849837044425
0.7645244002342224	6.490307919280043
0.7670646905899048	7.0660834408338
0.7696225643157959	7.699341641694938
0.7721980810165405	8.393677973096057
0.7747915983200073	9.140459180302777
0.7774031162261963	9.83556570998629
0.7800329327583313	10.517909054810737
0.7826811671257019	11.55673836329059
0.7853479981422424	12.820176102422757
0.7880334854125977	13.98835428967066
0.7907378077507019	15.07869577445012
0.7934610247612	16.010682667408478
0.7962033748626709	17.22001670939001
0.7989648580551147	18.93648651851825
0.801745593547821	20.63936864650976
0.8045456409454346	22.248044611305495
0.8073651194572449	23.957833114742897
0.8102040886878967	25.786383699355127
0.8130625486373901	27.756641337866355
0.8159406185150146	29.91531168308029
0.8188382983207703	32.282509767721194
0.8217556476593018	34.85221962708948
0.8246926665306091	37.66746150556737
0.8276493549346924	40.760384838160306
0.8306257724761963	44.11921601275709
0.8336219191551208	47.76808204327581
0.8366377949714661	51.74377832488307
0.8396733403205872	56.06754772877455
0.8427285552024841	60.76597056241718
0.8458034992218018	65.84790357677022
0.8488980531692505	71.27469153223598
0.8520121574401855	77.0972194364885
0.8551458716392517	83.53553472373596
0.8582990765571594	90.53797139982214
0.8614717125892639	97.9588533070743
0.8646637797355652	105.88077533322408
0.8678751587867737	114.35560618235569
0.8711057901382446	123.40865080678877
0.8743556141853333	133.07347988494882
0.87762451171875	143.39188513859673
0.8809124231338501	154.4084277446148
0.8842192888259888	166.1696200727354
0.8875449895858765	178.55415375305657
0.8908893465995789	190.1307441336273
0.894252359867096	201.49360758780327
0.8976338505744934	217.57111158982215
0.9010337591171265	236.76488221635134
0.9044519662857056	255.04316471509875
0.9078882932662964	273.5315628947452
0.9113426208496094	293.0111082354591
0.914814829826355	313.769613599177
0.9183048605918884	335.89086437039117
0.9218124747276306	359.44074734029533
0.925337553024292	383.67933165826616
0.9288799166679382	407.3059260693482
0.9324395060539246	431.2854346327362
0.9360161423683167	460.4017407320466
0.9396095871925354	496.86704264748425
0.943219780921936	534.854733411739
0.9468464851379395	571.1323789352242
0.9504896402359009	609.8230481536654
0.9541489481925964	652.479909999593
0.9578243494033813	698.7458134752927
0.9615156054496765	749.5242053707906
0.9652225375175476	804.8398113283116
0.9689450263977051	864.0581535850104
0.9726828336715698	926.3141643387054
0.9764357805252075	992.4355759139448
0.9802037477493286	1064.308032060811
0.983986496925354	1142.027210146935
0.9877838492393494	1224.5890179788705
0.9915955662727356	1312.0401683571495
0.9954215884208679	1405.1212710890632
0.9992615580558777	1503.9810665100151
1.0031154155731201	1608.3440655784361
1.0069829225540161	1718.2102654610444
1.0108637809753418	1833.989665567451
1.0147579908370972	1955.9818312522632
1.018665075302124	2084.3044864944586
1.022585153579712	2219.091878914457
1.0265177488327026	2360.72304365946
1.0304628610610962	2509.633594806564
1.0344202518463135	2666.1586295894936
1.0383895635604858	2830.544689400844
1.0423706769943237	3003.062785921021
1.0463634729385376	3184.170914098523
1.0503677129745483	3374.343060987093
1.0543830394744873	3574.0111345763585
1.058409333229065	3783.561093171408
1.0624464750289917	4003.449459823692
1.0664942264556885	4234.335246984716
1.0705522298812866	4476.856181410142
1.0746204853057861	4731.683557155716
1.0786986351013184	4999.372102274913
1.0827864408493042	5280.155415125008
1.086883783340454	5573.698410425281
1.0909905433654785	5879.821565173694
1.0951062440872192	6198.589568455376
1.0992310047149658	6523.727890367573
1.10336434841156	6842.051581664172
1.1075061559677124	7153.563102160618
1.1116561889648438	7474.476194481309
1.115814208984375	7817.49466176456
1.1199802160263062	8179.548367762936
1.124153733253479	8633.028880844184
1.1283347606658936	9188.350783690437
1.1325229406356812	9690.351656022402
1.1367181539535522	10235.368050220668
1.1409201622009277	10891.359855077699
1.145128846168518	11498.71767208496
1.1493438482284546	12073.510563216067
1.1535650491714478	12644.59275258619
1.1577922105789185	13253.730421964734
1.1620250940322876	14015.449377117679
1.1662636995315552	14861.844123254972
1.170507550239563	15691.89862881259
1.174756646156311	16550.28292992248
1.1790107488632202	17449.995047326687
1.1832695007324219	18374.045951272226
1.1875330209732056	19333.28580293285
1.191800832748413	20332.58022820931
1.1960728168487549	21374.156164973036
1.2003488540649414	22458.945022419528
1.2046287059783936	23586.460466578465
1.2089121341705322	24760.41769040176
1.2131990194320679	25986.713336696095
1.2174891233444214	27269.31353351287
1.2217823266983032	28607.467114030605
1.2260783910751343	30002.56833101592
1.230377197265625	31457.825019595002
1.2346785068511963	32975.320582618064
1.238982081413269	34557.885043535774
1.2432878017425537	36205.96471915072
1.2475954294204712	37921.855476621306
1.2519049644470215	39708.35089896732
1.256216049194336	41569.00847880815
1.2605286836624146	43506.79127544581
1.2648425102233887	45520.645773868026
1.2691574096679688	47609.667651386946
1.2734732627868652	49775.334522079145
1.2777899503707886	52021.043946112986
1.2821072340011597	54352.6965688861
1.2864248752593994	56773.42054474175
1.2907428741455078	59270.72158829762
1.2950609922409058	61855.849533613626
1.2993791103363037	64560.03197462008
1.303696870803833	67386.58382895525
1.3080145120620728	70304.53447498268
1.3123314380645752	73258.70470295161
1.3166478872299194	76324.02519923008
1.3209635019302368	79543.1842668738
1.3252781629562378	82747.519966302
1.3295916318893433	85552.60723209886
1.3339040279388428	87044.05904812693
1.3382149934768677	86526.42886510836
1.3425244092941284	84472.1840746269
1.3468321561813354	81502.53271178258
1.3511382341384888	78416.2986356264
1.3554422855377197	77668.14201368413
1.3597444295883179	80969.15856913895
1.3640443086624146	86980.4104837031
1.3683418035507202	95043.62365001976
1.3726370334625244	104642.18860863696
1.3769296407699585	112072.90433990415
1.381219506263733	114064.44990959635
1.3855066299438477	114147.31201397156
1.3897908926010132	115794.38707275152
1.3940720558166504	117916.71504719502
1.3983501195907593	123118.37365705655
1.4026249647140503	131212.44242579388
1.4068963527679443	138243.06654442562
1.4111642837524414	142986.98779307518
1.4154287576675415	144720.07344914982
1.419689416885376	145988.02237282938
1.4239463806152344	151894.306261549
1.4281994104385376	161402.25556049668
1.4324485063552856	172078.61800796678
1.436693549156189	183218.80838595983
1.440934419631958	194125.852362264
1.4451709985733032	204445.90262326255
1.449403166770935	214210.23207686466
1.453631043434143	226602.62523128203
1.4578542709350586	240175.79343789833
1.4620729684829712	250712.9398218653
1.4662868976593018	259077.1387342025
1.4704961776733398	267231.2055878078
1.4747005701065063	276536.9417123262
1.4788999557495117	286930.33487151406
1.4830944538116455	297398.9870612805
1.4872838258743286	308252.1250729417
1.491468071937561	319200.32112100476
1.4956470727920532	330493.3546937458
1.4998208284378052	342723.7021772185
1.5039892196655273	355178.238904863
1.5081522464752197	367750.49224373716
1.5123097896575928	380390.4461051366
1.5164618492126465	393124.1905102802
1.5206083059310913	406194.76287868025
1.5247491598129272	419191.6030123603
1.5288842916488647	431910.2049090261
1.5330137014389038	444796.5575687402
1.5371372699737549	458182.36271615344
1.541254997253418	471588.36095542886
1.545366883277893	485037.428417766
1.5494728088378906	498717.7219339781
1.5535727739334106	512590.02971631766
1.5576666593551636	526676.8709785194
1.561754584312439	540979.5376147851
1.5658363103866577	555530.573062907
1.5699119567871094	570356.6963273364
1.5739814043045044	585421.6767374485
1.5780447721481323	600668.8545435461
1.582101821899414	616129.6334179457
1.5861525535583496	631821.962831387
1.5901970863342285	647774.5584537504
1.5942351818084717	664063.0238028424
1.5982669591903687	680655.6828140122
1.6022924184799194	697432.1362113473
1.606311559677124	714369.9576193747
1.6103241443634033	731432.9589800794
1.6143304109573364	746554.2222755795
1.6183301210403442	748248.4321679109
1.6223233938217163	724013.097363376
1.6263102293014526	691564.0625791071
1.6302905082702637	675605.8542658
1.634264349937439	693172.9050393588
1.638231635093689	753471.8572802095
1.6421923637390137	810658.5019509338
1.646146535873413	823514.8967685711
1.6500942707061768	825196.8277859886
1.6540353298187256	837797.8663101016
1.6579699516296387	861753.0647420968
1.661897897720337	865113.1211064624
1.6658192873001099	791976.0689630513
1.6697341203689575	792108.9141817106
1.6736423969268799	911215.9696745919
1.677544116973877	969543.7537949745
1.6814392805099487	969010.412658816
1.6853278875350952	977991.8188153425
1.6892099380493164	983601.1285634158
1.6930854320526123	979321.4038243121
1.696954369544983	946850.1237137859
1.7008168697357178	874276.7718668507
1.7046726942062378	852785.3591249037
1.708522081375122	949809.917371619
1.712364912033081	1090936.0748073326
1.7162011861801147	1182022.2405555402
1.7200311422348022	1192380.359114355
1.723854422569275	1120974.2339218531
1.7276713848114014	1040342.7432654432
1.731481909751892	1050477.3621140926
1.7352858781814575	1138206.3088630282
1.7390835285186768	1226375.763512259
1.7428747415542603	1266965.5456156193
1.7466596364974976	1276915.978973751
1.7504380941390991	1302960.8332127105
1.7542102336883545	1336853.1562436142
1.7579760551452637	1341309.8364799588
1.7617355585098267	1330831.7051874478
1.7654887437820435	1330848.7214742396
1.7692357301712036	1321419.1986561937
1.7729763984680176	1290039.967094599
1.776710867881775	1302818.1013483068
1.7804391384124756	1349723.5552296976
1.7841613292694092	1310924.5260956543
1.7878772020339966	1225752.297185166
1.7915871143341064	1166964.3920023376
1.7952908277511597	1183827.183917491
1.7989884614944458	1232517.3009968488
1.8026801347732544	1228773.6438482178
1.806365728378296	1234729.3048710497
1.8100452423095703	1244051.357836781
1.8137187957763672	1246258.0502666312
1.817386507987976	1241732.6048806447
1.8210482597351074	1277976.3747867565
1.8247040510177612	1390603.3884893109
1.828354001045227	1416808.0912758235
1.8319982290267944	1388498.838718283
1.8356364965438843	1375481.5178291402
1.8392690420150757	1360750.8101891123
1.8428958654403687	1420354.8264672447
1.8465168476104736	1466656.0546357671
1.8501322269439697	1461475.4239209297
1.8537418842315674	1434894.3938831415
1.8573459386825562	1366862.8429552147
1.860944390296936	1312748.9196399145
1.864537239074707	1285906.8783271606
1.8681244850158691	1267831.3852180168
1.871706247329712	1338567.5034961114
1.8752825260162354	1557950.0149350902
1.8788533210754395	1803331.0404976944
1.8824186325073242	1922354.2787468897
1.8859784603118896	1967128.8043539892
1.8895330429077148	2030882.130671364
1.8930821418762207	2121343.308188905
1.8966259956359863	2149897.1224795897
1.9001644849777222	2062524.4468137594
1.9036977291107178	2001945.7745238778
1.9072256088256836	2026230.6747505611
1.9107483625411987	1996056.3989081443
1.9142658710479736	1949137.9331233567
1.9177782535552979	2012685.157524137
1.9212853908538818	2032111.0216045738
1.9247875213623047	2002485.591146122
1.9282845258712769	1998974.2041224306
1.9317764043807983	1990117.2940907064
1.9352631568908691	1964349.747369976
1.9387450218200684	1855953.6144634914
1.942221760749817	1884286.6331035933
1.9456936120986938	2062030.8424281823
1.9491604566574097	2169269.058210876
1.952622413635254	2182766.29528623
1.956079363822937	2142872.2788653295
1.959531545639038	2205750.6284718374
1.962978720664978	2349963.3960144017
1.966421127319336	2512244.8272891543
1.9698586463928223	2609446.478223705
1.9732913970947266	2619704.564689987
1.9767193794250488	2714216.71190288
1.9801424741744995	2853788.464258104
1.9835609197616577	3009072.8588406895
1.9869745969772339	3084391.1374477553
1.990383505821228	3038384.34288994
1.9937876462936401	3131244.21961438
1.9971871376037598	3242624.335083219
2.000581979751587	3314477.6681818715
2.003972291946411	3460557.5660535777
2.007357597351074	3524973.3526554736
2.0107386112213135	3603664.2499722787
2.0141148567199707	3735898.635519463
2.017486572265625	3767697.369689941
2.0208535194396973	3826122.5290866853
2.0242159366607666	3938201.320971651
2.027573823928833	3978690.0680715065
2.0309269428253174	4042497.528817569
2.034275770187378	4171895.7218960305
2.0376198291778564	4250836.649112014
2.040959596633911	4279137.832904996
2.044294595718384	4340710.995156739
2.0476250648498535	4415958.750797863
2.0509510040283203	4451505.690802494
2.054272413253784	4498083.2975577125
2.057589530944824	4582428.323789387
2.0609018802642822	4642567.479931274
2.0642096996307373	4685620.9499721695
2.0675129890441895	4747748.963813912
2.0708119869232178	4810977.278752343
2.074106216430664	4864120.765251353
2.0773961544036865	4911088.565241759
2.080681324005127	4947100.935560779
2.0839622020721436	4984546.233034109
2.087238311767578	5042417.951835621
2.090510129928589	5112355.7689792635
2.0937774181365967	5179462.352169176
2.0970399379730225	5234377.79442829
2.1002981662750244	5277497.611198546
2.1035518646240234	5320068.621121944
2.1068007946014404	5370802.947890828
2.1100454330444336	5421036.803371065
2.1132853031158447	5469671.022686937
2.116520881652832	5513676.927054
2.1197516918182373	5559197.59158612
2.1229779720306396	5619432.1098431
2.12619948387146	5677270.0754970545
2.1294167041778564	5721449.434479202
2.132629156112671	5766061.943717882
2.1358368396759033	5816474.0731865335
2.139039993286133	5843866.366005277
2.1422386169433594	5825317.402701652
2.145432472229004	5804865.044615392
2.1486217975616455	5766896.150659996
2.151806354522705	5714417.911784025
2.1549863815307617	5758436.769262578
2.1581614017486572	5856480.007754689
2.16133189201355	5897186.45660219
2.1644976139068604	5975671.047372026
2.167658567428589	6095352.149629132
2.1708147525787354	6156489.371697089
2.173966407775879	6186776.299847794
2.1771130561828613	6238480.48355063
2.1802549362182617	6327274.7736613555
2.183391809463501	6399979.265798592
2.1865241527557373	6472334.171559942
2.1896514892578125	6556510.730869421
2.1927738189697266	6580656.712775997
2.1958916187286377	6037347.633542839
2.1990041732788086	4665058.902840928
2.2021119594573975	3847613.3810175215
2.2052149772644043	4603724.560735551
2.208312749862671	5926948.951625017
2.2114057540893555	6591607.617960095
2.214493751525879	6404131.240593874
2.217576742172241	5656214.918828179
2.2206547260284424	4828967.645839117
2.2237277030944824	4309734.408899414
2.2267956733703613	3877967.1458764477
2.2298583984375	3514431.9096323694
2.2329163551330566	3521227.5279056993
2.235969066619873	3843285.375531182
2.2390167713165283	4018828.6058834097
2.2420592308044434	3741197.6650763503
2.2450966835021973	3279257.764170257
2.248128890991211	3077655.663599211
2.2511560916900635	3165979.0074484413
2.254178285598755	3250245.285994438
2.257194995880127	3446233.230484351
2.260206699371338	3791399.189275247
2.2632133960723877	3926128.464590709
2.266214609146118	3915859.742568222
2.2692108154296875	4072758.697091402
2.2722020149230957	4435731.037024786
2.2751877307891846	4557643.347336098
2.278168201446533	4630145.626204674
2.2811436653137207	4619365.917772735
2.284113883972168	4028988.420001898
2.287078857421875	3372700.064011326
2.290038824081421	3031627.532568354
2.2929933071136475	2846904.1510631237
2.295942783355713	2721954.0080179456
2.298887014389038	2804435.902088157
2.301826238632202	3207718.0881090993
2.304760217666626	3983820.9539856827
2.3076889514923096	5086544.800925692
2.310612440109253	6360920.448452885
2.3135311603546143	6550748.137649185
2.3164443969726562	4468055.974666185
2.319352865219116	2770876.0874932166
2.322256088256836	3454643.6757570617
2.3251543045043945	4578635.842488958
2.328047275543213	5014816.491786855
2.330935478210449	4682589.386768715
2.3338186740875244	3760769.061314606
2.3366971015930176	2945534.9558953233
2.3395702838897705	2614722.2749267872
2.3424389362335205	2625689.9030042635
2.3453025817871094	2504662.3186010425
2.348161458969116	2486357.7176535344
2.351015567779541	2813595.484907107
2.353865146636963	3315820.0561566553
2.3567099571228027	4245463.760098333
2.3595502376556396	5417389.425573771
2.3623859882354736	6054906.027509315
2.3652172088623047	5762536.947142257
2.368043899536133	4289651.7213706095
2.370866537094116	2463641.2904477026
2.3736846446990967	1975005.1036310073
2.3764986991882324	2908310.9717760314
2.3793084621429443	4280210.411133234
2.3821144104003906	4922163.839403385
2.384916305541992	4818518.280192421
2.387714147567749	5160837.6640385
2.3905084133148193	5726133.834455073
2.393299102783203	5290002.938781257
2.3960859775543213	3961704.0319081023
2.398869514465332	2974519.1105638784
2.4016497135162354	2766892.135764794
2.4044265747070312	2978618.3035184653
2.407200336456299	3350027.7444517645
2.409970998764038	3742868.19003881
2.4127390384674072	4047797.2028404837
2.415503978729248	3784020.8918454675
2.418266534805298	3157325.0479908804
2.4210267066955566	2927566.320387289
2.4237842559814453	2812865.086442996
2.426539897918701	2695954.5767595037
2.429293394088745	3386955.653616987
2.4320452213287354	4336127.895715877
2.4347951412200928	3982739.9845841033
2.4375438690185547	3701115.440790385
2.440291166305542	4376590.412087849
2.443037271499634	4387072.331276513
2.445782423019409	3972944.50897982
2.4485268592834473	4085437.119870964
2.451270818710327	4173001.3588824873
2.454014539718628	4050946.2715576994
2.4567582607269287	4129809.201423762
2.4595019817352295	4272787.566497339
2.4622461795806885	4652273.390366026
2.4649908542633057	4916783.664642454
2.4677364826202393	4414900.811444753
2.4704833030700684	4047254.90315251
2.473231554031372	4166617.6770167644
2.4759814739227295	4301752.812868907
2.4787333011627197	4391635.797782295
2.481487512588501	4564712.386475542
