#wavelength	surface flux
0.6450077295303345	62446.320360572914
0.6472567915916443	94478.22729947761
0.6494921445846558	114554.24486822926
0.6517150402069092	120731.80506374681
0.6539263725280762	126271.69074585306
0.6561272740364075	131948.36718521293
0.6583186388015747	137815.91476384763
0.6605015397071838	143884.75703528727
0.6626768708229065	150131.31922804596
0.6648455858230591	156536.83307518633
0.6670085787773132	163115.13211491963
0.6691668033599854	169835.23402257194
0.6713210344314575	176831.1094785426
0.6734722256660461	184347.56640479193
0.6756211519241333	192230.41449586084
0.6777685880661011	200328.24477639893
0.6799154281616211	208679.8242539711
0.6820623278617859	217344.81598234194
0.6842101216316223	226369.14267473377
0.6863595843315125	235655.80586708605
0.688511312007904	245223.46033013755
0.6906660795211792	255180.50143818907
0.6928245425224304	265495.9146029375
0.6949873566627502	276247.47096297063
0.6971551775932312	287493.5108074489
0.6993286609649658	299143.62140865164
0.7015084028244019	311378.4672466838
0.7036949396133423	323782.941514836
0.7058889269828796	335331.25504878967
0.7080909013748169	346908.33486489987
0.710301399230957	359727.16812871076
0.712520956993103	373243.9779692723
0.7147500514984131	387195.3147690191
0.7169892191886902	401919.7253213546
0.7192389369010925	417270.53295667184
0.7214996814727783	433160.18935076403
0.723771870136261	449882.6660381368
0.7260559797286987	467287.58583166526
0.7283523678779602	485251.37570095283
0.7306615710258484	503833.4946605438
0.7329838871955872	521660.93769221933
0.7353196740150452	538110.6114451668
0.7376693487167358	555163.6099125396
0.7400332689285278	573213.8864143128
0.7424117922782898	592075.6291661804
0.7448052167892456	612271.6936817181
0.7472138404846191	633907.9429794266
0.7496379613876343	657004.7319463161
0.7520779371261597	681209.2180879612
0.7545340061187744	706737.1805915295
0.7570064663887024	733132.9756804456
0.7594954967498779	759582.094917804
0.7620013952255249	784069.2522493647
0.7645244002342224	797287.3588192973
0.7670646905899048	805850.1740621569
0.7696225643157959	834460.0549344375
0.7721980810165405	884049.3194226732
0.7747915983200073	933088.8138362045
0.7774031162261963	971760.4052506605
0.7800329327583313	1007566.1953653594
0.7826811671257019	1044842.9187650657
0.7853479981422424	1079201.253092794
0.7880334854125977	1111271.2424149641
0.7907378077507019	1145565.0273626188
0.7934610247612	1181719.107311445
0.7962033748626709	1220576.0660075396
0.7989648580551147	1263857.2614935338
0.801745593547821	1312139.2680691672
0.8045456409454346	1364748.7057807855
0.8073651194572449	1421056.411916921
0.8102040886878967	1482573.608669011
0.8130625486373901	1550745.9357167261
0.8159406185150146	1621613.9281389678
0.8188382983207703	1684182.863183716
0.8217556476593018	1745768.6638837254
0.8246926665306091	1815405.2426138471
0.8276493549346924	1873195.8843053633
0.8306257724761963	1918364.6318121857
0.8336219191551208	1977660.945292836
0.8366377949714661	2050982.6790332831
0.8396733403205872	2121849.1205746494
0.8427285552024841	2178357.465468237
0.8458034992218018	2221682.5326174083
0.8488980531692505	2276147.5682277884
0.8520121574401855	2344392.9192848136
0.8551458716392517	2413735.8230025903
0.8582990765571594	2483213.9442322333
0.8614717125892639	2553087.4506650753
0.8646637797355652	2625447.220298738
0.8678751587867737	2702034.778897651
0.8711057901382446	2787733.240475034
0.8743556141853333	2882655.102410638
0.87762451171875	2984700.54373491
0.8809124231338501	3094366.386218236
0.8842192888259888	3203747.0024724207
0.8875449895858765	3304599.358598106
0.8908893465995789	3393699.7812471683
0.894252359867096	3484306.115116553
0.8976338505744934	3614325.288302804
0.9010337591171265	3762846.128218422
0.9044519662857056	3887959.9490360525
0.9078882932662964	4008602.929041869
0.9113426208496094	4144151.655862933
0.914814829826355	4286439.007158316
0.9183048605918884	4418413.20460959
0.9218124747276306	4528261.835930934
0.925337553024292	4622518.199185025
0.9288799166679382	4722184.08089638
0.9324395060539246	4847787.244236931
0.9360161423683167	5005515.907615794
0.9396095871925354	5187097.663811571
0.943219780921936	5372621.958972363
0.9468464851379395	5545937.275062471
0.9504896402359009	5701203.628631257
0.9541489481925964	5808177.927477107
0.9578243494033813	5877084.766752678
0.9615156054496765	5959011.115694053
0.9652225375175476	6080197.08780351
0.9689450263977051	6246912.884261877
0.9726828336715698	6443231.011362031
0.9764357805252075	6660830.513449733
0.9802037477493286	6909764.095743266
0.983986496925354	7176569.745779889
0.9877838492393494	7386255.101037305
0.9915955662727356	7499538.085069775
0.9954215884208679	7644841.984583505
0.9992615580558777	7863238.71466912
1.0031154155731201	8074334.745050611
1.0069829225540161	8288226.176400325
1.0108637809753418	8518491.790287279
1.0147579908370972	8751374.176046569
1.018665075302124	8989591.630254105
1.022585153579712	9244373.516362453
1.0265177488327026	9511361.958804393
1.0304628610610962	9786572.060719172
1.0344202518463135	10080376.064367378
1.0383895635604858	10397613.320961222
1.0423706769943237	10712127.833242055
1.0463634729385376	10913086.560614021
1.0503677129745483	10935856.524830556
1.0543830394744873	10934522.542315297
1.058409333229065	11031819.39145365
1.0624464750289917	11240976.802047756
1.0664942264556885	11585659.363498317
1.0705522298812866	12046627.930375107
1.0746204853057861	12588074.335560478
1.0786986351013184	13176902.837841561
1.0827864408493042	13765826.399482096
1.086883783340454	14284284.296569858
1.0909905433654785	14668179.874449631
1.0951062440872192	14896496.24996996
1.0992310047149658	14981932.475943998
1.10336434841156	14922825.354752028
1.1075061559677124	14913388.187561443
1.1116561889648438	15189429.06848178
1.115814208984375	15602875.350629767
1.1199802160263062	15932742.260677664
1.124153733253479	16279694.514515309
1.1283347606658936	16640519.203801313
1.1325229406356812	16825646.583038103
1.1367181539535522	17017744.609841853
1.1409201622009277	17411931.70720856
1.145128846168518	17946970.364816558
1.1493438482284546	18484942.653331447
1.1535650491714478	18855051.71554695
1.1577922105789185	19184305.258094978
1.1620250940322876	19588608.156797137
1.1662636995315552	19898516.53931341
1.170507550239563	20140921.244774744
1.174756646156311	20392741.67928014
1.1790107488632202	20707569.029952634
1.1832695007324219	21194167.34178631
1.1875330209732056	21668819.75993267
1.191800832748413	22047537.64845697
1.1960728168487549	22433056.39108672
1.2003488540649414	22846158.598872956
1.2046287059783936	23367165.528966315
1.2089121341705322	23965195.569612842
1.2131990194320679	24534305.965829402
1.2174891233444214	25181992.10138025
1.2217823266983032	25904900.26613964
1.2260783910751343	26520924.347048
1.230377197265625	27055646.759026285
1.2346785068511963	27567833.666450866
1.238982081413269	27885035.62494352
1.2432878017425537	28094053.172264095
1.2475954294204712	28601893.319352232
1.2519049644470215	29304312.635848965
1.256216049194336	30087025.607225697
1.2605286836624146	30905576.646214858
1.2648425102233887	31584174.47443406
1.2691574096679688	32208399.697067156
1.2734732627868652	32842007.044849847
1.2777899503707886	33471254.457045436
1.2821072340011597	34095790.88885011
1.2864248752593994	34777893.993631065
1.2907428741455078	35471104.99706458
1.2950609922409058	36170397.1926094
1.2993791103363037	36976578.44262358
1.303696870803833	37803264.443483695
1.3080145120620728	38341060.95443492
1.3123314380645752	38535848.24371005
1.3166478872299194	38706629.633791886
1.3209635019302368	38838035.46784956
1.3252781629562378	38477136.98983073
1.3295916318893433	37277296.37231001
1.3339040279388428	35335772.32031948
1.3382149934768677	33858779.67700182
1.3425244092941284	33602281.10360199
1.3468321561813354	33633270.035987
1.3511382341384888	33447446.417259675
1.3554422855377197	33757958.35243492
1.3597444295883179	34763647.30894398
1.3640443086624146	35422626.98546238
1.3683418035507202	35836050.47427304
1.3726370334625244	36682490.64996297
1.3769296407699585	37711873.60555845
1.381219506263733	38609498.59427031
1.3855066299438477	39026642.50215987
1.3897908926010132	39000090.92927118
1.3940720558166504	38887077.96235297
1.3983501195907593	39013131.872329
1.4026249647140503	39333759.70937599
1.4068963527679443	40032486.52980674
1.4111642837524414	40799402.790908106
1.4154287576675415	40696515.30959984
1.419689416885376	40390970.28381074
1.4239463806152344	40825063.2213706
1.4281994104385376	41626500.28332119
1.4324485063552856	42492536.8210964
1.436693549156189	43260877.78129606
1.440934419631958	43830814.594723314
1.4451709985733032	44174128.264196776
1.449403166770935	44468267.933978915
1.453631043434143	45343262.22622381
1.4578542709350586	46285799.38239332
1.4620729684829712	46795481.79021461
1.4662868976593018	47351190.73906991
1.4704961776733398	48051248.56346643
1.4747005701065063	48685944.54251188
1.4788999557495117	49235587.79944739
1.4830944538116455	49815974.38882001
1.4872838258743286	50654713.792846166
1.491468071937561	51403339.381959304
1.4956470727920532	51979022.51982873
1.4998208284378052	52765966.92799865
1.5039892196655273	53507817.35139478
1.5081522464752197	54139968.09392463
1.5123097896575928	55014684.78288336
1.5164618492126465	56201293.92470033
1.5206083059310913	57237702.83094971
1.5247491598129272	58049843.072330974
1.5288842916488647	58892858.43988173
1.5330137014389038	59883109.90553786
1.5371372699737549	60833073.364420325
1.541254997253418	61484880.929557174
1.545366883277893	62185990.628142715
1.5494728088378906	63117622.11509343
1.5535727739334106	64029508.28908824
1.5576666593551636	64807596.548483126
1.561754584312439	65747669.05720228
1.5658363103866577	66916048.123656586
1.5699119567871094	68077921.85490012
1.5739814043045044	69220354.64321731
1.5780447721481323	70323116.65470992
1.582101821899414	71450140.81373923
1.5861525535583496	72644124.70862558
1.5901970863342285	73618498.00703524
1.5942351818084717	74453289.12290025
1.5982669591903687	75558632.81781484
1.6022924184799194	76898059.66318871
1.606311559677124	78175752.49670178
1.6103241443634033	79292959.06569856
1.6143304109573364	80449849.2216317
1.6183301210403442	81623898.72350578
1.6223233938217163	82781244.37757875
1.6263102293014526	83958188.36311293
1.6302905082702637	85140255.1355635
1.634264349937439	86640093.8589714
1.638231635093689	88213463.6773965
1.6421923637390137	89472809.4049986
1.646146535873413	90576644.55611269
1.6500942707061768	91270625.57549505
1.6540353298187256	91803540.5789813
1.6579699516296387	92497883.56939091
1.661897897720337	93619268.20696339
1.6658192873001099	95222869.53121696
1.6697341203689575	96627177.01501952
1.6736423969268799	97950141.92674366
1.677544116973877	99291592.16948995
1.6814392805099487	100493019.59193487
1.6853278875350952	100770984.69523902
1.6892099380493164	100289618.20702077
1.6930854320526123	99631518.34640008
1.696954369544983	98443576.79197179
1.7008168697357178	97579249.34642035
1.7046726942062378	96787337.17917348
1.708522081375122	95249048.93682179
1.712364912033081	92796482.73483068
1.7162011861801147	90438577.28633256
1.7200311422348022	89953340.97676723
1.723854422569275	89988276.61230159
1.7276713848114014	89316722.7286336
1.731481909751892	88479912.78420228
1.7352858781814575	87226536.59748451
1.7390835285186768	85874989.16945328
1.7428747415542603	84901395.50186153
1.7466596364974976	83724957.59815699
1.7504380941390991	83130168.01013424
1.7542102336883545	83591469.43861458
1.7579760551452637	83825383.76640229
1.7617355585098267	84062487.6179707
1.7654887437820435	84021933.66392393
1.7692357301712036	83154313.40875024
1.7729763984680176	81860393.809684
1.776710867881775	80930269.9930782
1.7804391384124756	80664809.5563812
1.7841613292694092	80909508.40291883
1.7878772020339966	81612865.71651618
1.7915871143341064	81868170.88128932
1.7952908277511597	81053696.30300526
1.7989884614944458	79234945.92527106
1.8026801347732544	78839383.9997132
1.806365728378296	79478903.02840498
1.8100452423095703	79526539.06503853
1.8137187957763672	80272780.07841136
1.817386507987976	79717860.21752799
1.8210482597351074	78525306.71468604
1.8247040510177612	78710147.48054619
1.828354001045227	79041865.2509607
1.8319982290267944	80409045.3646741
1.8356364965438843	81664918.79883116
1.8392690420150757	80531202.03955309
1.8428958654403687	78321246.10096844
1.8465168476104736	76707251.81955658
1.8501322269439697	76081397.64777263
1.8537418842315674	75948729.32442686
1.8573459386825562	74730447.13617954
1.860944390296936	74150331.8570068
1.864537239074707	75961883.24269336
1.8681244850158691	77934140.52029602
1.871706247329712	79440639.39805965
1.8752825260162354	80576288.83129667
1.8788533210754395	81082254.74841946
1.8824186325073242	81657751.242627
1.8859784603118896	82882176.52180018
1.8895330429077148	83884930.56741247
1.8930821418762207	83817378.21165985
1.8966259956359863	84372022.48732196
1.9001644849777222	85831631.64629704
1.9036977291107178	86437379.06596534
1.9072256088256836	86562372.94568427
1.9107483625411987	86726180.05758564
1.9142658710479736	87158795.86124086
1.9177782535552979	88361804.7181226
1.9212853908538818	88810061.21460971
1.9247875213623047	88985426.5339627
1.9282845258712769	90114365.41025594
1.9317764043807983	90033972.77053066
1.9352631568908691	88132229.78818391
1.9387450218200684	84440832.88396922
1.942221760749817	83225498.29103282
1.9456936120986938	86003199.18236917
1.9491604566574097	87403745.57152614
1.952622413635254	86620870.00625454
1.956079363822937	85560485.04519138
1.959531545639038	85673332.10657923
1.962978720664978	87271623.19230452
1.966421127319336	88591661.84286562
1.9698586463928223	88843187.94487251
1.9732913970947266	88601644.65300551
1.9767193794250488	87408722.0712595
1.9801424741744995	87374015.69536187
1.9835609197616577	89711956.48914404
1.9869745969772339	90847002.93153389
1.990383505821228	90117767.8259055
1.9937876462936401	89274542.5494414
1.9971871376037598	87603122.07042283
2.000581979751587	88015578.1479868
2.003972291946411	90225879.56282298
2.007357597351074	90829061.3168374
2.0107386112213135	92200508.19917022
2.0141148567199707	93400596.30409588
2.017486572265625	92877747.20955959
2.0208535194396973	93464702.01971808
2.0242159366607666	94514992.4834243
2.027573823928833	94266252.81213278
2.0309269428253174	95338770.87827359
2.034275770187378	97253488.55717953
2.0376198291778564	97500474.82791947
2.040959596633911	97771515.36212811
2.044294595718384	98159415.65482694
2.0476250648498535	98040034.29308005
2.0509510040283203	98141403.07697782
2.054272413253784	98947183.29008557
2.057589530944824	100979182.63063186
2.0609018802642822	102365909.76078154
2.0642096996307373	103093493.21089444
2.0675129890441895	105358357.91680618
2.0708119869232178	106816621.05263126
2.074106216430664	106660760.18834001
2.0773961544036865	107438645.13776816
2.080681324005127	107829511.9859164
2.0839622020721436	107543613.3185328
2.087238311767578	108406080.29716611
2.090510129928589	110115267.02248292
2.0937774181365967	110971078.79574956
2.0970399379730225	111283080.8972665
2.1002981662750244	112325692.0032665
2.1035518646240234	113697760.48558898
2.1068007946014404	114996759.16176973
2.1100454330444336	115623143.44591947
2.1132853031158447	116309221.34183581
2.116520881652832	116788792.1251939
2.1197516918182373	117525870.16200851
2.1229779720306396	119409964.41269568
2.12619948387146	120309117.65363741
2.1294167041778564	120172044.46579629
2.132629156112671	121112938.02646834
2.1358368396759033	122042479.00398928
2.139039993286133	122049004.1884597
2.1422386169433594	123244362.56274879
2.145432472229004	125359554.30451499
2.1486217975616455	125803170.3344563
2.151806354522705	125700483.90552205
2.1549863815307617	126884226.09823304
2.1581614017486572	127541883.72668423
2.16133189201355	127161462.4838697
2.1644976139068604	127487291.82503712
2.167658567428589	128864732.98005466
2.1708147525787354	129172051.18496095
2.173966407775879	128833983.7443456
2.1771130561828613	129298310.39682584
2.1802549362182617	130896337.1386259
2.183391809463501	132434748.153328
2.1865241527557373	132349877.47123653
2.1896514892578125	132155790.19624257
2.1927738189697266	132267344.0085475
2.1958916187286377	132202064.74224943
2.1990041732788086	131539002.43195988
2.2021119594573975	130452432.16103604
2.2052149772644043	130752565.0365276
2.208312749862671	132297679.41391484
2.2114057540893555	133726550.59883024
2.214493751525879	134067446.98797312
2.217576742172241	132247268.72546722
2.2206547260284424	130721427.482807
2.2237277030944824	132803038.1654173
2.2267956733703613	134247683.93007526
2.2298583984375	133769874.616925
2.2329163551330566	132947696.42548868
2.235969066619873	131300981.59919854
2.2390167713165283	132343649.98342583
2.2420592308044434	134565581.15935192
2.2450966835021973	135587484.46223387
2.248128890991211	135682776.27281284
2.2511560916900635	134052660.61779043
2.254178285598755	132451137.84972492
2.257194995880127	132765291.63399495
2.260206699371338	133999953.884963
2.2632133960723877	133584385.96560583
2.266214609146118	132537127.17819437
2.2692108154296875	132025969.60919902
2.2722020149230957	132164148.1506312
2.2751877307891846	134179863.08944345
2.278168201446533	134966392.52747083
2.2811436653137207	133847184.10771407
2.284113883972168	134365732.32420248
2.287078857421875	136127046.28872734
2.290038824081421	133470813.68422793
2.2929933071136475	122096300.32085255
2.295942783355713	114038358.68343675
2.298887014389038	117107349.30691637
2.301826238632202	120165792.71157062
2.304760217666626	119039824.42268825
2.3076889514923096	119262221.52881043
2.310612440109253	121929225.8068854
2.3135311603546143	123159477.85021934
2.3164443969726562	122590313.86464629
2.319352865219116	120248320.30834965
2.322256088256836	113469793.18050517
2.3251543045043945	108636152.82304592
2.328047275543213	110793228.30089967
2.330935478210449	114117699.37464939
2.3338186740875244	115422425.7143563
2.3366971015930176	115528336.62960796
2.3395702838897705	115763354.25243405
2.3424389362335205	116225275.05895303
2.3453025817871094	117122742.88794096
2.348161458969116	118859243.7551743
2.351015567779541	115823395.78873697
2.353865146636963	110599385.22685765
2.3567099571228027	109986002.54870166
2.3595502376556396	109048769.00227712
2.3623859882354736	107905159.22178163
2.3652172088623047	109480413.48855114
2.368043899536133	110443248.6699307
2.370866537094116	110627365.78599156
2.3736846446990967	110713470.95144129
2.3764986991882324	109719599.2496122
2.3793084621429443	108025026.23130317
2.3821144104003906	105729413.83363412
2.384916305541992	104562799.60184008
2.387714147567749	106539581.88284698
2.3905084133148193	108672785.7976966
2.393299102783203	106887243.00306417
2.3960859775543213	104834368.55771881
2.398869514465332	104338735.38063285
2.4016497135162354	103245639.80412777
2.4044265747070312	103565623.44772834
2.407200336456299	103771146.88026902
2.409970998764038	102678847.87018873
2.4127390384674072	101911687.48637797
2.415503978729248	100571223.08054969
2.418266534805298	100147662.61576912
2.4210267066955566	100045533.35440946
2.4237842559814453	99150225.8769882
2.426539897918701	99125513.91911806
2.429293394088745	98406659.71348457
2.4320452213287354	96294975.25136615
2.4347951412200928	93042939.86236848
2.4375438690185547	91498956.7166161
2.440291166305542	92568857.4644158
2.443037271499634	91863670.7552292
2.445782423019409	91294624.53248061
2.4485268592834473	91440487.5110999
2.451270818710327	87965556.76382966
2.454014539718628	86397998.73132257
2.4567582607269287	91881418.70791294
2.4595019817352295	93567801.35608535
2.4622461795806885	91158665.119173
2.4649908542633057	90689458.20347035
2.4677364826202393	89189031.68502316
2.4704833030700684	87148336.15268144
2.473231554031372	82961458.87997934
2.4759814739227295	82791666.25866675
2.4787333011627197	85479262.1681032
2.481487512588501	83220829.57144402
2.4842441082000732	82121393.66330494
