#wavelength	surface flux
0.6450077295303345	1.8982298379919443e-12
0.6472567915916443	3.027461817492025e-12
0.6494921445846558	4.047798355530886e-12
0.6517150402069092	4.809980103725155e-12
0.6539263725280762	5.686861968166989e-12
0.6561272740364075	6.7308414059266086e-12
0.6583186388015747	7.982645250714026e-12
0.6605015397071838	9.49502694650475e-12
0.6626768708229065	1.133663466209787e-11
0.6648455858230591	1.3597648359207861e-11
0.6670085787773132	1.6394532463655584e-11
0.6691668033599854	1.9870283674141934e-11
0.6713210344314575	2.419639037879408e-11
0.6734722256660461	2.9580282818832464e-11
0.6756211519241333	3.627448026692206e-11
0.6777685880661011	4.4585590434798524e-11
0.6799154281616211	5.488221469552932e-11
0.6820623278617859	6.76035858089823e-11
0.6842101216316223	8.326673445664532e-11
0.6863595843315125	1.0247027027561199e-10
0.688511312007904	1.258995649104501e-10
0.6906660795211792	1.5432022456391008e-10
0.6928245425224304	1.8857407262876955e-10
0.6949873566627502	2.295651289974335e-10
0.6971551775932312	2.7819927478520524e-10
0.6993286609649658	3.353692318901881e-10
0.7015084028244019	4.0200507551050627e-10
0.7036949396133423	4.791121345754099e-10
0.7058889269828796	5.678405868826922e-10
0.7080909013748169	6.695325580306139e-10
0.710301399230957	7.857072000002466e-10
0.712520956993103	9.180378148197315e-10
0.7147500514984131	1.068341579547079e-09
0.7169892191886902	1.2387543302483843e-09
0.7192389369010925	1.4317974035015252e-09
0.7214996814727783	1.650182969103676e-09
0.723771870136261	1.897011076202523e-09
0.7260559797286987	2.176123774756614e-09
0.7283523678779602	2.4919758175197795e-09
0.7306615710258484	2.8501346597829416e-09
0.7329838871955872	3.2574468492266382e-09
0.7353196740150452	3.7208944992223896e-09
0.7376693487167358	4.249163951496233e-09
0.7400332689285278	4.8537937170281014e-09
0.7424117922782898	5.5484009769529464e-09
0.7448052167892456	6.349566360720483e-09
0.7472138404846191	7.277823723213996e-09
0.7496379613876343	8.358562905350808e-09
0.7520779371261597	9.62337580669158e-09
0.7545340061187744	1.1111923297873597e-08
0.7570064663887024	1.2874279352371756e-08
0.7594954967498779	1.4972671543834836e-08
0.7620013952255249	1.7479490707447722e-08
0.7645244002342224	2.047452095699294e-08
0.7670646905899048	2.404619221789381e-08
0.7696225643157959	2.829315969123148e-08
0.7721980810165405	3.3323940349526506e-08
0.7747915983200073	3.9254007873351976e-08
0.7774031162261963	4.619647195360728e-08
0.7800329327583313	5.4277519483916785e-08
0.7826811671257019	6.364739132017492e-08
0.7853479981422424	7.439281656790936e-08
0.7880334854125977	8.655596822358251e-08
0.7907378077507019	1.0018123888389961e-07
0.7934610247612	1.153262516165079e-07
0.7962033748626709	1.322601576615022e-07
0.7989648580551147	1.5126046202061488e-07
0.801745593547821	1.7247121747481893e-07
0.8045456409454346	1.962424260591433e-07
0.8073651194572449	2.230939467532753e-07
0.8102040886878967	2.5358041825362687e-07
0.8130625486373901	2.8848717258284196e-07
0.8159406185150146	3.2907234630207604e-07
0.8188382983207703	3.76584015836556e-07
0.8217556476593018	4.3221846950426883e-07
0.8246926665306091	4.978562368948953e-07
0.8276493549346924	5.754154072644155e-07
0.8306257724761963	6.665879723785659e-07
0.8336219191551208	7.738566076283624e-07
0.8366377949714661	9.003231384651958e-07
0.8396733403205872	1.0493175712746222e-06
0.8427285552024841	1.2246505255313456e-06
0.8458034992218018	1.4306123014305885e-06
0.8488980531692505	1.6721552696232355e-06
0.8520121574401855	1.954994128984085e-06
0.8551458716392517	2.285498528057421e-06
0.8582990765571594	2.6706802948591557e-06
0.8614717125892639	3.1182911932625645e-06
0.8646637797355652	3.636940468106524e-06
0.8678751587867737	4.23595556614408e-06
0.8711057901382446	4.925637175664531e-06
0.8743556141853333	5.718066821590759e-06
0.87762451171875	6.627647518894214e-06
0.8809124231338501	7.671153389078535e-06
0.8842192888259888	8.867724223261876e-06
0.8875449895858765	1.0229811289549136e-05
0.8908893465995789	1.1695725334772414e-05
0.894252359867096	1.3317552405672106e-05
0.8976338505744934	1.5400706308505228e-05
0.9010337591171265	1.7895586542609018e-05
0.9044519662857056	2.060991648119218e-05
0.9078882932662964	2.362399888498487e-05
0.9113426208496094	2.701163804916788e-05
0.914814829826355	3.083975391892754e-05
0.9183048605918884	3.516737905853424e-05
0.9218124747276306	4.006656772747103e-05
0.925337553024292	4.557339104225092e-05
0.9288799166679382	5.155086759733996e-05
0.9324395060539246	5.786902221950191e-05
0.9360161423683167	6.535432084377662e-05
0.9396095871925354	7.520340518609505e-05
0.943219780921936	8.662163286290521e-05
0.9468464851379395	9.856482742574401e-05
0.9504896402359009	0.00011201229155615907
0.9541489481925964	0.00012788748615178813
0.9578243494033813	0.00014663966105806428
0.9615156054496765	0.00016851182223719764
0.9652225375175476	0.00019344839250081306
0.9689450263977051	0.00022197113676569315
0.9726828336715698	0.0002548780268982912
0.9764357805252075	0.00029321457262786714
0.9802037477493286	0.00033792910411137235
0.983986496925354	0.00038972263328818747
0.9877838492393494	0.0004494170190015319
0.9915955662727356	0.0005180412360475889
0.9954215884208679	0.0005968062390991582
0.9992615580558777	0.0006867513035641226
1.0031154155731201	0.0007888537858779639
1.0069829225540161	0.0009043183022831122
1.0108637809753418	0.0010345754784735065
1.0147579908370972	0.0011811702946066187
1.018665075302124	0.001345681686051837
1.022585153579712	0.0015297953577289986
1.0265177488327026	0.0017356864340683422
1.0304628610610962	0.0019655940171419153
1.0344202518463135	0.0022216770284463915
1.0383895635604858	0.0025064844200794454
1.0423706769943237	0.0028228781915861883
1.0463634729385376	0.0031739669656127745
1.0503677129745483	0.003563199254804794
1.0543830394744873	0.003994416902682902
1.058409333229065	0.004471826254770828
1.0624464750289917	0.005000070723275469
1.0664942264556885	0.005584318136509292
1.0705522298812866	0.006230299546807146
1.0746204853057861	0.006944794530941249
1.0786986351013184	0.007735164418604426
1.0827864408493042	0.008608880114070502
1.086883783340454	0.009572687364466812
1.0909905433654785	0.010637232584392137
1.0951062440872192	0.011819851884705137
1.0992310047149658	0.013128303355304809
1.10336434841156	0.014557083055043682
1.1075061559677124	0.016092238583805915
1.1116561889648438	0.01774104791707682
1.115814208984375	0.019585039379448207
1.1199802160263062	0.021614307374837185
1.124153733253479	0.02397866546286463
1.1283347606658936	0.026839549640971065
1.1325229406356812	0.029908120598860912
1.1367181539535522	0.0332674505036545
1.1409201622009277	0.037096390585113666
1.145128846168518	0.04126396866407961
1.1493438482284546	0.0457793237853605
1.1535650491714478	0.05053443446876645
1.1577922105789185	0.05573767457283844
1.1620250940322876	0.061983723924496435
1.1662636995315552	0.06912040573217346
1.170507550239563	0.0767312542358411
1.174756646156311	0.08499731425312819
1.1790107488632202	0.09412377272967766
1.1832695007324219	0.10421139760832633
1.1875330209732056	0.11536268293377855
1.191800832748413	0.12766706728402244
1.1960728168487549	0.14122072728115495
1.2003488540649414	0.15614379348931137
1.2046287059783936	0.17261229756679533
1.2089121341705322	0.19077643129872307
1.2131990194320679	0.21077577493694513
1.2174891233444214	0.2328094985381579
1.2217823266983032	0.2570535888703381
1.2260783910751343	0.28371111687608247
1.230377197265625	0.31301777873980935
1.2346785068511963	0.34523218207243334
1.238982081413269	0.3806557018141821
1.2432878017425537	0.41954452913376
1.2475954294204712	0.4622018520272661
1.2519049644470215	0.5089973958304694
1.256216049194336	0.5603257992600952
1.2605286836624146	0.6165951415899602
1.2648425102233887	0.6782255325475276
1.2691574096679688	0.745684941595873
1.2734732627868652	0.8195030260352552
1.2777899503707886	0.9002296704712579
1.2821072340011597	0.9884922506079161
1.2864248752593994	1.08493889868432
1.2907428741455078	1.1901175671166409
1.2950609922409058	1.3049682782238294
1.2993791103363037	1.4306104835112732
1.303696870803833	1.5675982864024918
1.3080145120620728	1.7162665797314192
1.3123314380645752	1.8772742432367635
1.3166478872299194	2.052551142103996
1.3209635019302368	2.2448672156570257
1.3252781629562378	2.4536231079195105
1.3295916318893433	2.6729929556756202
1.3339040279388428	2.9014765071541797
1.3382149934768677	3.136745270112747
1.3425244092941284	3.3474404950737373
1.3468321561813354	3.5241104926408813
1.3511382341384888	3.6770489624711344
1.3554422855377197	3.9158704688788055
1.3597444295883179	4.331006708620943
1.3640443086624146	4.750450881256828
1.3683418035507202	5.176290934257053
1.3726370334625244	5.773578657519284
1.3769296407699585	6.464201384716986
1.381219506263733	7.096205847686311
1.3855066299438477	7.604017772183176
1.3897908926010132	8.075537937582377
1.3940720558166504	8.54229318438181
1.3983501195907593	9.169237638880627
1.4026249647140503	10.11626318274199
1.4068963527679443	11.248744289832242
1.4111642837524414	12.172437508121146
1.4154287576675415	12.698239628969947
1.419689416885376	13.3474820501017
1.4239463806152344	14.462205513691519
1.4281994104385376	15.878513433863072
1.4324485063552856	17.614275332686788
1.436693549156189	19.54211405358444
1.440934419631958	21.442091964812466
1.4451709985733032	23.145027147073325
1.449403166770935	24.71500182817252
1.453631043434143	26.80944097832171
1.4578542709350586	29.308068761925963
1.4620729684829712	31.60374978813001
1.4662868976593018	33.819591444715634
1.4704961776733398	36.10667480977963
1.4747005701065063	38.60368045488409
1.4788999557495117	41.64090217506201
1.4830944538116455	44.914114443720216
1.4872838258743286	48.19755524503024
1.491468071937561	51.74715905387113
1.4956470727920532	55.63434054970056
1.4998208284378052	59.68429527235133
1.5039892196655273	63.782798771713864
1.5081522464752197	68.30315693286022
1.5123097896575928	73.1920161079583
1.5164618492126465	78.27409586537786
1.5206083059310913	83.68810307406588
1.5247491598129272	89.3658364504655
1.5288842916488647	95.31899389820374
1.5330137014389038	101.6034060266317
1.5371372699737549	108.2491857897738
1.541254997253418	115.22041819940029
1.545366883277893	122.55300584110273
1.5494728088378906	130.33781312559165
1.5535727739334106	138.55111959699673
1.5576666593551636	147.17686739053917
1.561754584312439	156.26219593402078
1.5658363103866577	165.83892137721116
1.5699119567871094	175.9105204680304
1.5739814043045044	186.49486679975658
1.5780447721481323	197.6207054662988
1.582101821899414	209.30925981406907
1.5861525535583496	221.59671877818215
1.5901970863342285	234.50538784522158
1.5942351818084717	248.04971228113732
1.5982669591903687	262.25618691043854
1.6022924184799194	277.14707591117144
1.606311559677124	292.7488518740629
1.6103241443634033	309.0958272994879
1.6143304109573364	325.7064508449022
1.6183301210403442	337.2656701275924
1.6223233938217163	335.9522314252525
1.6263102293014526	330.59138944985614
1.6302905082702637	332.841475935838
1.634264349937439	352.20191893966796
1.638231635093689	397.5763862895326
1.6421923637390137	439.17105775629517
1.646146535873413	447.9352309336158
1.6500942707061768	452.7941927098076
1.6540353298187256	471.0928536373354
1.6579699516296387	494.0792739263383
1.661897897720337	515.6176515735376
1.6658192873001099	506.66056042063013
1.6697341203689575	523.295863959522
1.6736423969268799	596.8735894501826
1.677544116973877	644.1831746419705
1.6814392805099487	662.0451511311737
1.6853278875350952	684.1989344170331
1.6892099380493164	702.7995106944693
1.6930854320526123	717.4648808994389
1.696954369544983	693.3000664081534
1.7008168697357178	612.6116517376996
1.7046726942062378	582.4691486742834
1.708522081375122	690.6842904897977
1.712364912033081	856.8859552488678
1.7162011861801147	975.627252319824
1.7200311422348022	1003.8193598456902
1.723854422569275	929.0893677195561
1.7276713848114014	848.961149350391
1.731481909751892	891.7317340452222
1.7352858781814575	1057.9496522894265
1.7390835285186768	1221.2869717734939
1.7428747415542603	1282.3660961671135
1.7466596364974976	1307.899393316745
1.7504380941390991	1399.2924081226756
1.7542102336883545	1528.6823547090441
1.7579760551452637	1582.1957561751472
1.7617355585098267	1600.196504540381
1.7654887437820435	1674.9368314343112
1.7692357301712036	1716.9974532236797
1.7729763984680176	1685.4004163286365
1.776710867881775	1768.8108499934324
1.7804391384124756	1934.1638702044957
1.7841613292694092	1913.5937975219001
1.7878772020339966	1790.7222295982804
1.7915871143341064	1749.4426732456297
1.7952908277511597	1929.639226718417
1.7989884614944458	2207.112167548662
1.8026801347732544	2387.5589305661533
1.806365728378296	2490.2552378374344
1.8100452423095703	2501.0050560576447
1.8137187957763672	2521.258204490571
1.817386507987976	2602.93438329972
1.8210482597351074	2781.702669994832
1.8247040510177612	2998.095521928196
1.828354001045227	3100.2974185071703
1.8319982290267944	3203.612733649401
1.8356364965438843	3328.350970808383
1.8392690420150757	3410.5167681889375
1.8428958654403687	3521.961361816139
1.8465168476104736	3627.5654400472977
1.8501322269439697	3728.8263780206407
1.8537418842315674	3846.540534061095
1.8573459386825562	3869.1332746378234
1.860944390296936	3820.16246086523
1.864537239074707	3875.2989359834323
1.8681244850158691	4025.9431063816014
1.871706247329712	4277.811212893601
1.8752825260162354	4650.582471823474
1.8788533210754395	4963.177102474205
1.8824186325073242	5145.064139197226
1.8859784603118896	5422.248735034644
1.8895330429077148	5821.639531801036
1.8930821418762207	6078.738445394099
1.8966259956359863	6141.924933818477
1.9001644849777222	6149.186819364633
1.9036977291107178	6260.555620224194
1.9072256088256836	6396.721788420083
1.9107483625411987	6160.690479752435
1.9142658710479736	5961.219489682185
1.9177782535552979	6453.892554245037
1.9212853908538818	6921.817758024441
1.9247875213623047	7081.73730316307
1.9282845258712769	7362.678028512456
1.9317764043807983	7652.199511724037
1.9352631568908691	7828.8382550863935
1.9387450218200684	7686.301514111744
1.942221760749817	7907.707395213606
1.9456936120986938	8685.968733519228
1.9491604566574097	9099.846683022568
1.952622413635254	9201.946916497314
1.956079363822937	9272.311694778204
1.959531545639038	9409.993585328783
1.962978720664978	9847.732519602207
1.966421127319336	10619.741112589947
1.9698586463928223	11382.811918287574
1.9732913970947266	11902.53065030298
1.9767193794250488	12161.502738960933
1.9801424741744995	12352.656862421663
1.9835609197616577	12835.213449922532
1.9869745969772339	13368.898595785944
1.990383505821228	13739.841971661326
1.9937876462936401	14023.722180733133
1.9971871376037598	14115.988466786966
2.000581979751587	14464.995672040697
2.003972291946411	15144.560863933584
2.007357597351074	15585.325672251267
2.0107386112213135	16015.605412619168
2.0141148567199707	16507.42897566822
2.017486572265625	16854.010209163574
2.0208535194396973	17397.328715890286
2.0242159366607666	18015.01071709752
2.027573823928833	18350.289742212593
2.0309269428253174	18616.021818684887
2.034275770187378	19143.990896294523
2.0376198291778564	19869.701191405555
2.040959596633911	20479.40772257588
2.044294595718384	20953.623560405325
2.0476250648498535	21389.227962021483
2.0509510040283203	21766.8217602436
2.054272413253784	22227.775882858026
2.057589530944824	22873.703193280064
2.0609018802642822	23524.88075857732
2.0642096996307373	24075.705402719548
2.0675129890441895	24605.357631681854
2.0708119869232178	25159.03783988363
2.074106216430664	25740.27668379891
2.0773961544036865	26313.953766166815
2.080681324005127	26846.867233460693
2.0839622020721436	27427.845754666447
2.087238311767578	28080.17591235538
2.090510129928589	28710.169386872585
2.0937774181365967	29327.549224325827
2.0970399379730225	29952.935561486538
2.1002981662750244	30576.894323951965
2.1035518646240234	31222.349642237295
2.1068007946014404	31913.366885072093
2.1100454330444336	32618.474795689108
2.1132853031158447	33300.004531038045
2.116520881652832	33970.79964772525
2.1197516918182373	34664.06293607355
2.1229779720306396	35407.476759878795
2.12619948387146	36160.29290062279
2.1294167041778564	36890.97391132386
2.132629156112671	37637.49900738123
2.1358368396759033	38412.397224544206
2.139039993286133	39144.02704480805
2.1422386169433594	39755.19274067518
2.145432472229004	40136.99461118492
2.1486217975616455	40149.34178896958
2.151806354522705	40368.18127690352
2.1549863815307617	41207.864808524675
2.1581614017486572	42285.67657417477
2.16133189201355	43103.31587610312
2.1644976139068604	44145.34486741895
2.167658567428589	45506.62722077109
2.1708147525787354	46335.779272808824
2.173966407775879	46572.75902103081
2.1771130561828613	47305.4741694449
2.1802549362182617	48925.68575965792
2.183391809463501	50229.305497885965
2.1865241527557373	51060.45988072214
2.1896514892578125	51928.1921636006
2.1927738189697266	53009.71046817326
2.1958916187286377	50020.474734387106
2.1990041732788086	39626.935029481254
2.2021119594573975	32996.772348716775
2.2052149772644043	39788.29248202802
2.208312749862671	52053.911968147455
2.2114057540893555	58713.22646872354
2.214493751525879	58370.385688009716
2.217576742172241	53529.501862451194
2.2206547260284424	46911.11691367129
2.2237277030944824	42768.064849268296
2.2267956733703613	41300.80891473205
2.2298583984375	40349.37520916008
2.2329163551330566	41103.50883800393
2.235969066619873	44704.68882326578
2.2390167713165283	47801.54688548853
2.2420592308044434	44569.07417566473
2.2450966835021973	37868.493794605994
2.248128890991211	36004.70258803797
2.2511560916900635	38676.26944189033
2.254178285598755	41351.93292126877
2.257194995880127	44365.81892582304
2.260206699371338	48716.96794640995
2.2632133960723877	51596.65760468866
2.266214609146118	51717.83107270757
2.2692108154296875	52684.643773859556
2.2722020149230957	55392.05174535668
2.2751877307891846	53932.418095290195
2.278168201446533	52702.20884913117
2.2811436653137207	52410.544122214356
2.284113883972168	46571.808054708155
2.287078857421875	40329.79585920125
2.290038824081421	38918.73913393658
2.2929933071136475	40080.99536609703
2.295942783355713	38521.53238552608
2.298887014389038	36379.042084030276
2.301826238632202	41364.59358435727
2.304760217666626	52275.397008810396
2.3076889514923096	64315.700767068825
2.310612440109253	78542.28730563802
2.3135311603546143	81287.2818791877
2.3164443969726562	57186.09919611311
2.319352865219116	39653.06375019277
2.322256088256836	51904.85192922218
2.3251543045043945	66874.60545750154
2.328047275543213	72203.72508087616
2.330935478210449	68904.70042994719
2.3338186740875244	60652.528537668986
2.3366971015930176	52448.864810461244
2.3395702838897705	45779.3449238765
2.3424389362335205	44610.80022268812
2.3453025817871094	42489.49884474008
2.348161458969116	41759.29526715847
2.351015567779541	47595.05495890892
2.353865146636963	58191.744903863524
2.3567099571228027	75242.36075539632
2.3595502376556396	91461.98985350403
2.3623859882354736	100207.15620145312
2.3652172088623047	99524.74333626246
2.368043899536133	79618.99234605899
2.370866537094116	49460.507609674365
2.3736846446990967	38703.96149942111
2.3764986991882324	52303.24641825964
2.3793084621429443	75788.45212494498
2.3821144104003906	86430.50973829225
2.384916305541992	84247.94588408394
2.387714147567749	93310.48144891245
2.3905084133148193	107335.23100645242
2.393299102783203	103743.665094199
2.3960859775543213	81632.0358772861
2.398869514465332	57110.09966421287
2.4016497135162354	42266.03388797621
2.4044265747070312	45025.81866583212
2.407200336456299	61416.80429849967
2.409970998764038	72711.60774725102
2.4127390384674072	76501.1327151036
2.415503978729248	72757.77389106546
2.418266534805298	57902.37171035148
2.4210267066955566	44108.38443211751
2.4237842559814453	38096.74887289734
2.426539897918701	37712.0938060291
2.429293394088745	56077.09249522414
2.4320452213287354	80513.70819766658
2.4347951412200928	72827.2464540514
