#wavelength	surface flux
0.6450077295303345	198990.8647239399
0.6472567915916443	300627.44928474294
0.6494921445846558	363531.7717142246
0.6517150402069092	381846.2259984904
0.6539263725280762	398073.4252756222
0.6561272740364075	414713.1288223304
0.6583186388015747	431826.8863533021
0.6605015397071838	449466.16611601284
0.6626768708229065	467619.6899951379
0.6648455858230591	486287.25831533223
0.6670085787773132	504745.68330398307
0.6691668033599854	519626.4464913286
0.6713210344314575	535581.3681328335
0.6734722256660461	561280.505967994
0.6756211519241333	588986.4661656626
0.6777685880661011	612751.6364672832
0.6799154281616211	636489.0461430683
0.6820623278617859	661020.7264283361
0.6842101216316223	686372.3761826877
0.6863595843315125	712488.6920424491
0.688511312007904	739355.7086498151
0.6906660795211792	767212.3240644161
0.6928245425224304	796118.2505255042
0.6949873566627502	825943.0078543038
0.6971551775932312	856720.3435495251
0.6993286609649658	888446.0369453743
0.7015084028244019	921258.7653324518
0.7036949396133423	955038.7593249084
0.7058889269828796	989190.827342182
0.7080909013748169	1023990.4781444242
0.710301399230957	1060110.1351239812
0.712520956993103	1097434.0575260005
0.7147500514984131	1135860.322612029
0.7169892191886902	1175498.8147440918
0.7192389369010925	1216199.7353320266
0.7214996814727783	1257984.9892037704
0.723771870136261	1301085.9782166732
0.7260559797286987	1345417.7481329453
0.7283523678779602	1390871.1591304333
0.7306615710258484	1437348.6063608616
0.7329838871955872	1484168.1096947691
0.7353196740150452	1531389.269514263
0.7376693487167358	1579919.304702245
0.7400332689285278	1629528.3076349187
0.7424117922782898	1680493.1357995407
0.7448052167892456	1733333.6784935258
0.7472138404846191	1788290.8701813621
0.7496379613876343	1845364.5210165915
0.7520779371261597	1903533.626799106
0.7545340061187744	1962060.1084721547
0.7570064663887024	2018133.5370735242
0.7594954967498779	2063097.6305096755
0.7620013952255249	2049501.1818889314
0.7645244002342224	1864697.0609837428
0.7670646905899048	1624219.7446379845
0.7696225643157959	1655687.2568245833
0.7721980810165405	2002686.800613155
0.7747915983200073	2371460.7400334375
0.7774031162261963	2555426.0868607247
0.7800329327583313	2635650.7389166844
0.7826811671257019	2745000.136317858
0.7853479981422424	2872741.2355208225
0.7880334854125977	2975155.286353841
0.7907378077507019	3060588.500809207
0.7934610247612	3121606.857437071
0.7962033748626709	3209197.6868507043
0.7989648580551147	3350987.6722273943
0.801745593547821	3487461.954165299
0.8045456409454346	3606793.9510752424
0.8073651194572449	3727497.447382525
0.8102040886878967	3851140.301879333
0.8130625486373901	3978049.9003630956
0.8159406185150146	4105693.75943771
0.8188382983207703	4235789.984633118
0.8217556476593018	4376841.598095653
0.8246926665306091	4526916.467092268
0.8276493549346924	4672589.116409313
0.8306257724761963	4812521.941760326
0.8336219191551208	4958155.463139588
0.8366377949714661	5111265.037413187
0.8396733403205872	5265728.172261041
0.8427285552024841	5415567.062501605
0.8458034992218018	5560202.309477935
0.8488980531692505	5708677.50128343
0.8520121574401855	5863670.650394084
0.8551458716392517	6030648.759088695
0.8582990765571594	6203835.697432386
0.8614717125892639	6373649.958178001
0.8646637797355652	6545017.127191824
0.8678751587867737	6719149.807978064
0.8711057901382446	6902179.433416195
0.8743556141853333	7096349.686423205
0.87762451171875	7297289.953958447
0.8809124231338501	7504662.320379514
0.8842192888259888	7716663.585485476
0.8875449895858765	7926659.683216808
0.8908893465995789	8098297.412714954
0.894252359867096	8247880.224659641
0.8976338505744934	8498001.560633067
0.9010337591171265	8797495.28717655
0.9044519662857056	9042881.386248533
0.9078882932662964	9275668.834274944
0.9113426208496094	9518375.949503217
0.914814829826355	9769864.790984796
0.9183048605918884	10026175.99472074
0.9218124747276306	10285998.324516822
0.925337553024292	10543534.03947343
0.9288799166679382	10799991.653703466
0.9324395060539246	11071078.377204822
0.9360161423683167	11362592.826976417
0.9396095871925354	11667083.944054984
0.943219780921936	11974610.66803224
0.9468464851379395	12280850.11883324
0.9504896402359009	12589293.116566047
0.9541489481925964	12893007.353474278
0.9578243494033813	13186583.644369714
0.9615156054496765	13479212.68083211
0.9652225375175476	13787036.339298455
0.9689450263977051	14118941.521020023
0.9726828336715698	14471838.594369415
0.9764357805252075	14849669.874057766
0.9802037477493286	15252507.644399593
0.983986496925354	15656225.036145166
0.9877838492393494	15997022.896172578
0.9915955662727356	16250347.867879614
0.9954215884208679	16541191.687887661
0.9992615580558777	16916630.82442618
1.0031154155731201	17302391.855925567
1.0069829225540161	17687749.86124001
1.0108637809753418	18081335.76834612
1.0147579908370972	18484098.324778028
1.018665075302124	18894098.23221737
1.022585153579712	19311620.994351454
1.0265177488327026	19737988.040942565
1.0304628610610962	20171278.73701329
1.0344202518463135	20611203.245833937
1.0383895635604858	21061231.037356284
1.0423706769943237	21519149.71877332
1.0463634729385376	21965451.104251392
1.0503677129745483	22386583.32073735
1.0543830394744873	22798076.1342409
1.058409333229065	23218522.217988886
1.0624464750289917	23678293.0647359
1.0664942264556885	24207385.41101272
1.0705522298812866	24790126.086456314
1.0746204853057861	25396759.552245107
1.0786986351013184	26015787.185254548
1.0827864408493042	26646244.029718723
1.086883783340454	27345886.764816284
1.0909905433654785	28176831.87393879
1.0951062440872192	28943486.39700396
1.0992310047149658	29454518.639580995
1.10336434841156	29778835.168410704
1.1075061559677124	30093733.956282537
1.1116561889648438	30567826.83709703
1.115814208984375	31159608.50962315
1.1199802160263062	31749913.084331498
1.124153733253479	32371553.751268033
1.1283347606658936	32940189.71736278
1.1325229406356812	33240543.582741965
1.1367181539535522	33391140.024393335
1.1409201622009277	33844794.905912615
1.145128846168518	34814967.99591447
1.1493438482284546	35860908.282771744
1.1535650491714478	36577373.62295323
1.1577922105789185	37097900.14205743
1.1620250940322876	37499585.228515446
1.1662636995315552	37668341.69584958
1.170507550239563	37858723.07737004
1.174756646156311	38256267.045125246
1.1790107488632202	38949474.271136455
1.1832695007324219	40152370.15787632
1.1875330209732056	41299425.81979944
1.191800832748413	41854051.50958001
1.1960728168487549	42111684.37538225
1.2003488540649414	42488237.34430864
1.2046287059783936	43150538.19725795
1.2089121341705322	43949956.65292989
1.2131990194320679	44677279.39622242
1.2174891233444214	45458051.5730714
1.2217823266983032	46318645.29952179
1.2260783910751343	47080314.64139088
1.230377197265625	47784095.322556034
1.2346785068511963	48468613.74951727
1.238982081413269	48985749.145775504
1.2432878017425537	49421722.29479045
1.2475954294204712	50074342.6126187
1.2519049644470215	50878466.06357149
1.256216049194336	51922296.99084922
1.2605286836624146	53097347.46250434
1.2648425102233887	54040443.18808249
1.2691574096679688	54865417.28125991
1.2734732627868652	55712936.879033685
1.2777899503707886	56592960.80330007
1.2821072340011597	57492338.61200031
1.2864248752593994	58430352.23134199
1.2907428741455078	59420528.33714103
1.2950609922409058	60476340.53207695
1.2993791103363037	61645636.12862152
1.303696870803833	62871873.65159998
1.3080145120620728	64050077.740613155
1.3123314380645752	65234962.4723426
1.3166478872299194	66359324.74787935
1.3209635019302368	67241777.70130363
1.3252781629562378	67758446.22440474
1.3295916318893433	67299338.62013155
1.3339040279388428	65159530.33456887
1.3382149934768677	62684920.38262543
1.3425244092941284	61506349.651219055
1.3468321561813354	61048311.0058695
1.3511382341384888	60828873.95498247
1.3554422855377197	61412495.934248604
1.3597444295883179	63114495.47792987
1.3640443086624146	65163193.88469375
1.3683418035507202	66908326.45707154
1.3726370334625244	68672304.39919536
1.3769296407699585	70253794.2100792
1.381219506263733	70765024.20903125
1.3855066299438477	70337596.7221955
1.3897908926010132	69828191.75973627
1.3940720558166504	69709171.48290846
1.3983501195907593	70432374.18273726
1.4026249647140503	71619880.93304221
1.4068963527679443	72488401.4386239
1.4111642837524414	72854923.75348502
1.4154287576675415	72802990.13132438
1.419689416885376	72809652.05333515
1.4239463806152344	73461981.30851069
1.4281994104385376	74709929.25666414
1.4324485063552856	76046685.39795601
1.436693549156189	77174868.33466178
1.440934419631958	78257892.12323418
1.4451709985733032	79317632.29517691
1.449403166770935	80342471.52511182
1.453631043434143	81730816.34554361
1.4578542709350586	83268929.93132077
1.4620729684829712	84415595.68311739
1.4662868976593018	85340264.11525536
1.4704961776733398	86423704.6340224
1.4747005701065063	87614622.62407413
1.4788999557495117	88687491.75645833
1.4830944538116455	89638286.7334124
1.4872838258743286	90707791.55829924
1.491468071937561	91884812.61197153
1.4956470727920532	93014392.35288805
1.4998208284378052	94167155.32780676
1.5039892196655273	95402663.05225904
1.5081522464752197	96572500.37932391
1.5123097896575928	97606371.2517522
1.5164618492126465	98701937.14256676
1.5206083059310913	99932236.8383476
1.5247491598129272	101129963.05864811
1.5288842916488647	102222252.71808252
1.5330137014389038	103220327.83704051
1.5371372699737549	104240562.3379821
1.541254997253418	105311403.01649967
1.545366883277893	106426064.94560193
1.5494728088378906	107517891.37145089
1.5535727739334106	108486510.9617805
1.5576666593551636	109238749.66093613
1.561754584312439	109949247.57192248
1.5658363103866577	110974963.12062551
1.5699119567871094	112120369.49797209
1.5739814043045044	113131645.34664854
1.5780447721481323	114114174.0718632
1.582101821899414	115064128.9359204
1.5861525535583496	115989133.14096943
1.5901970863342285	116802552.20855416
1.5942351818084717	117387020.37141655
1.5982669591903687	118045400.23346426
1.6022924184799194	118957226.4774035
1.606311559677124	120107880.68913996
1.6103241443634033	121313775.53601357
1.6143304109573364	122230132.63822602
1.6183301210403442	122942899.27475886
1.6223233938217163	123636879.25421834
1.6263102293014526	124311149.29121532
1.6302905082702637	125092478.90494937
1.634264349937439	126021791.77124245
1.638231635093689	126996596.21468054
1.6421923637390137	127882821.38239011
1.646146535873413	128598238.04054633
1.6500942707061768	129121637.34489818
1.6540353298187256	129705402.46909516
1.6579699516296387	130431774.92061837
1.661897897720337	131182717.86916193
1.6658192873001099	131921871.35768542
1.6697341203689575	132609588.72885476
1.6736423969268799	133312018.52190593
1.677544116973877	133986783.64067592
1.6814392805099487	134582271.01563406
1.6853278875350952	134983088.8062573
1.6892099380493164	135322019.19374442
1.6930854320526123	135670510.23254928
1.696954369544983	135896987.63880217
1.7008168697357178	136174375.46973285
1.7046726942062378	136294197.33528873
1.708522081375122	136314904.47376218
1.712364912033081	136249311.80025056
1.7162011861801147	135901647.61541736
1.7200311422348022	135897780.17972246
1.723854422569275	136042078.86810717
1.7276713848114014	135720274.84774035
1.731481909751892	135140925.54889524
1.7352858781814575	134437862.72206172
1.7390835285186768	133441768.09178486
1.7428747415542603	132693051.84714784
1.7466596364974976	132138723.56908984
1.7504380941390991	131257315.40825729
1.7542102336883545	130022547.43787147
1.7579760551452637	128916936.49567252
1.7617355585098267	128696568.87267064
1.7654887437820435	128169987.035514
1.7692357301712036	126798512.74578926
1.7729763984680176	125413705.44444418
1.776710867881775	124173957.27509584
1.7804391384124756	123013997.59509483
1.7841613292694092	121695882.2871121
1.7878772020339966	121251733.6521159
1.7915871143341064	121244620.56928211
1.7952908277511597	119967118.23255947
1.7989884614944458	117605118.49594566
1.8026801347732544	116366900.36026289
1.806365728378296	116844717.7253636
1.8100452423095703	117356856.39784136
1.8137187957763672	117874330.31151003
1.817386507987976	117120559.20303652
1.8210482597351074	117089185.58999702
1.8247040510177612	119474472.93327355
1.828354001045227	120264254.18182854
1.8319982290267944	120466450.57254472
1.8356364965438843	120930410.2835816
1.8392690420150757	120312564.36787823
1.8428958654403687	119622823.15345167
1.8465168476104736	118037216.22434163
1.8501322269439697	116151247.03634413
1.8537418842315674	114306671.14022827
1.8573459386825562	111467261.84440026
1.860944390296936	110025112.60465747
1.864537239074707	111198516.29678433
1.8681244850158691	113587783.08118771
1.871706247329712	116475812.94234765
1.8752825260162354	119684795.68308797
1.8788533210754395	122972991.4539497
1.8824186325073242	125609704.75521456
1.8859784603118896	127468371.1753858
1.8895330429077148	128632675.49201709
1.8930821418762207	129668650.06765336
1.8966259956359863	130711465.03701653
1.9001644849777222	130521777.55756083
1.9036977291107178	129569123.53055198
1.9072256088256836	130419210.62481456
1.9107483625411987	131754162.38168807
1.9142658710479736	131385295.69916397
1.9177782535552979	130551266.38209523
1.9212853908538818	129055357.83873208
1.9247875213623047	128540282.0005172
1.9282845258712769	129287154.10993278
1.9317764043807983	128692503.06915686
1.9352631568908691	126261194.80065843
1.9387450218200684	121929378.13195468
1.942221760749817	121179020.77590206
1.9456936120986938	124741100.67495899
1.9491604566574097	126690034.57494196
1.952622413635254	125222151.34806769
1.956079363822937	122669090.04375634
1.959531545639038	123063335.14447732
1.962978720664978	125364541.38618398
1.966421127319336	127501383.6944697
1.9698586463928223	128037482.74709696
1.9732913970947266	126649069.55568326
1.9767193794250488	126197644.18266784
1.9801424741744995	127431797.44259423
1.9835609197616577	130423303.38131773
1.9869745969772339	131959613.31605145
1.990383505821228	129668520.52476817
1.9937876462936401	129687599.02141455
1.9971871376037598	131013972.91212003
2.000581979751587	132122766.56711502
2.003972291946411	134904092.23366892
2.007357597351074	134464751.8415753
2.0107386112213135	133616462.13976125
2.0141148567199707	136101303.43061742
2.017486572265625	137456959.64713433
2.0208535194396973	138759426.90576065
2.0242159366607666	140474919.6389996
2.027573823928833	140189538.46948546
2.0309269428253174	140939176.6362451
2.034275770187378	142687053.5604096
2.0376198291778564	143320019.66332248
2.040959596633911	144128644.8544472
2.044294595718384	145209611.0872091
2.0476250648498535	146133104.79252833
2.0509510040283203	146555496.76161265
2.054272413253784	146543903.71029177
2.057589530944824	147443605.14315864
2.0609018802642822	148586807.2301172
2.0642096996307373	149498902.51835075
2.0675129890441895	151503759.69202852
2.0708119869232178	152837724.76490083
2.074106216430664	152965323.58912173
2.0773961544036865	153546749.9311614
2.080681324005127	153592057.13057303
2.0839622020721436	153287882.66962057
2.087238311767578	153673183.4455973
2.090510129928589	154501017.55677196
2.0937774181365967	154686125.66279262
2.0970399379730225	154589299.26574147
2.1002981662750244	154905321.83561683
2.1035518646240234	155670433.5674734
2.1068007946014404	156913410.7714443
2.1100454330444336	157620971.81555682
2.1132853031158447	157772432.72667012
2.116520881652832	157582019.71742347
2.1197516918182373	157806832.92823523
2.1229779720306396	158752554.5839291
2.12619948387146	158939134.47646153
2.1294167041778564	158415361.03218424
2.132629156112671	158634963.11685628
2.1358368396759033	158986851.41079572
2.139039993286133	158866074.36431918
2.1422386169433594	159238724.86175948
2.145432472229004	160008585.04644084
2.1486217975616455	160262885.19232565
2.151806354522705	160152617.03142777
2.1549863815307617	160292722.20982376
2.1581614017486572	160261682.77830473
2.16133189201355	159835316.0387994
2.1644976139068604	159700442.14085916
2.167658567428589	160067775.90202603
2.1708147525787354	160020700.61502615
2.173966407775879	159832216.74214846
2.1771130561828613	160037714.52306038
2.1802549362182617	160430138.56671482
2.183391809463501	160687430.7012556
2.1865241527557373	160491940.78942382
2.1896514892578125	160369635.88381884
2.1927738189697266	160497624.64002323
2.1958916187286377	160447126.42342916
2.1990041732788086	160096849.78091922
2.2021119594573975	159691669.12507015
2.2052149772644043	159475828.65098968
2.208312749862671	159700916.9183873
2.2114057540893555	160220603.4083898
2.214493751525879	160349104.6017607
2.217576742172241	159705339.7709918
2.2206547260284424	159156893.28886744
2.2237277030944824	159460955.60536954
2.2267956733703613	159456859.69967884
2.2298583984375	159135278.9418497
2.2329163551330566	159089276.0400021
2.235969066619873	158884459.8822184
2.2390167713165283	159054324.73467612
2.2420592308044434	159449186.01944128
2.2450966835021973	159506027.50050917
2.248128890991211	159203729.5376344
2.2511560916900635	158681887.74154088
2.254178285598755	158230161.49620578
2.257194995880127	158186557.08540177
2.260206699371338	158552975.82460174
2.2632133960723877	158417276.11291453
2.266214609146118	157886902.51360676
2.2692108154296875	157588198.66099435
2.2722020149230957	157508404.7684042
2.2751877307891846	157694857.93496135
2.278168201446533	157556393.37751937
2.2811436653137207	157037012.75452
2.284113883972168	156982638.5716409
2.287078857421875	157478519.46745935
2.290038824081421	156139083.951918
2.2929933071136475	149897921.4284926
2.295942783355713	143411820.10595894
2.298887014389038	141753752.72672585
2.301826238632202	141222624.36335146
2.304760217666626	139447402.9205268
2.3076889514923096	139346404.96508464
2.310612440109253	141420139.8972837
2.3135311603546143	142470889.79035547
2.3164443969726562	142626773.755918
2.319352865219116	142408538.90058833
2.322256088256836	139555390.9162616
2.3251543045043945	136725410.666465
2.328047275543213	137707590.09352502
2.330935478210449	139965820.68770033
2.3338186740875244	140985185.9580075
2.3366971015930176	141319195.0109923
2.3395702838897705	141896584.84094366
2.3424389362335205	142503258.30763295
2.3453025817871094	143118340.85347876
2.348161458969116	144149272.90759304
2.351015567779541	143048625.56010023
2.353865146636963	140896241.39451155
2.3567099571228027	139993633.83909944
2.3595502376556396	139271979.94325566
2.3623859882354736	139890083.7325787
2.3652172088623047	140773228.85967535
2.368043899536133	140485001.64167392
2.370866537094116	141165532.57921636
2.3736846446990967	142152886.84950864
2.3764986991882324	141469172.57087964
2.3793084621429443	139420728.91193998
2.3821144104003906	137697010.41086817
2.384916305541992	137173665.5570958
2.387714147567749	137191360.70729858
2.3905084133148193	137680656.81988314
2.393299102783203	138047620.1803164
2.3960859775543213	138539934.20800075
2.398869514465332	138615314.76676482
2.4016497135162354	137137567.39292124
2.4044265747070312	135464196.12756422
2.407200336456299	134366463.39943877
2.409970998764038	133841975.34239179
2.4127390384674072	133309914.48182712
2.415503978729248	132409599.61863789
2.418266534805298	131402675.97990665
2.4210267066955566	130120579.49536058
2.4237842559814453	128855382.25272852
2.426539897918701	127683829.3339027
2.429293394088745	126672083.61851712
2.4320452213287354	125042195.66739067
2.4347951412200928	122033062.92081644
2.4375438690185547	121286250.93287313
2.440291166305542	121536093.2451815
2.443037271499634	118442582.57657273
2.445782423019409	115939949.51447119
2.4485268592834473	115743319.0716738
2.451270818710327	111864062.96001382
2.454014539718628	108842252.04177408
2.4567582607269287	114739759.58784308
2.4595019817352295	115152349.30889797
2.4622461795806885	112034222.47054727
2.4649908542633057	111729996.25884806
2.4677364826202393	106249392.04573204
2.4704833030700684	103093800.56155036
2.473231554031372	100254935.01360321
