#wavelength	surface flux
0.6450077295303345	8.067848123215349e-14
0.6472567915916443	1.2903403378587134e-13
0.6494921445846558	1.734452302750088e-13
0.6517150402069092	2.0756733652972749e-13
0.6539263725280762	2.474524001295571e-13
0.6561272740364075	2.9579324126739617e-13
0.6583186388015747	3.5501985841988736e-13
0.6605015397071838	4.2841268123042133e-13
0.6626768708229065	5.204478710116405e-13
0.6648455858230591	6.372923688784166e-13
0.6670085787773132	7.872694780813887e-13
0.6691668033599854	9.81119389057479e-13
0.6713210344314575	1.2323943325109276e-12
0.6734722256660461	1.5583360368371474e-12
0.6756211519241333	1.980978527898554e-12
0.6777685880661011	2.528326270617781e-12
0.6799154281616211	3.235696042978165e-12
0.6820623278617859	4.1470370111257775e-12
0.6842101216316223	5.316213766670319e-12
0.6863595843315125	6.808256769491112e-12
0.688511312007904	8.699979494508118e-12
0.6906660795211792	1.1079533747481848e-11
0.6928245425224304	1.404612333753267e-11
0.6949873566627502	1.7708918024170814e-11
0.6971551775932312	2.217893651587781e-11
0.6993286609649658	2.7560984832289722e-11
0.7015084028244019	3.395854170070849e-11
0.7036949396133423	4.1483040691403586e-11
0.7058889269828796	5.025965883734204e-11
0.7080909013748169	6.042838035432651e-11
0.710301399230957	7.21438129104542e-11
0.712520956993103	8.557476693492437e-11
0.7147500514984131	1.0089673054363781e-10
0.7169892191886902	1.1830968781582315e-10
0.7192389369010925	1.380839360986095e-10
0.7214996814727783	1.605155790789456e-10
0.723771870136261	1.858896536809656e-10
0.7260559797286987	2.1458915273624054e-10
0.7283523678779602	2.4710984354464516e-10
0.7306615710258484	2.840336139716563e-10
0.7329838871955872	3.2607677423914514e-10
0.7353196740150452	3.7405494132274963e-10
0.7376693487167358	4.2899493462196977e-10
0.7400332689285278	4.922544417670348e-10
0.7424117922782898	5.654823316093614e-10
0.7448052167892456	6.507257943517586e-10
0.7472138404846191	7.50617769477215e-10
0.7496379613876343	8.685295829057888e-10
0.7520779371261597	1.0087823571461116e-09
0.7545340061187744	1.1769647121787916e-09
0.7570064663887024	1.3803495951501538e-09
0.7594954967498779	1.6282388118046294e-09
0.7620013952255249	1.9317911215709413e-09
0.7645244002342224	2.3036856536312296e-09
0.7670646905899048	2.758177437325146e-09
0.7696225643157959	3.3113580566281964e-09
0.7721980810165405	3.981161588626814e-09
0.7747915983200073	4.772453084054102e-09
0.7774031162261963	5.578481991761128e-09
0.7800329327583313	6.466676883879515e-09
0.7826811671257019	7.88906480374143e-09
0.7853479981422424	9.702000096596244e-09
0.7880334854125977	1.1534520858329526e-08
0.7907378077507019	1.337615731910386e-08
0.7934610247612	1.508654841574418e-08
0.7962033748626709	1.7340256813852848e-08
0.7989648580551147	2.051893775465322e-08
0.801745593547821	2.3852564607056415e-08
0.8045456409454346	2.7245125502647748e-08
0.8073651194572449	3.105833605079995e-08
0.8102040886878967	3.540708198422783e-08
0.8130625486373901	4.0427001642589845e-08
0.8159406185150146	4.6316598776098174e-08
0.8188382983207703	5.332400821526548e-08
0.8217556476593018	6.170654331765972e-08
0.8246926665306091	7.176993177484756e-08
0.8276493549346924	8.386430502559698e-08
0.8306257724761963	9.838848492450879e-08
0.8336219191551208	1.158556617328383e-07
0.8366377949714661	1.3686973714774516e-07
0.8396733403205872	1.6211665704466507e-07
0.8427285552024841	1.924057847463408e-07
0.8458034992218018	2.2862200748095856e-07
0.8488980531692505	2.712110921620978e-07
0.8520121574401855	3.216772543183406e-07
0.8551458716392517	3.8373844269299533e-07
0.8582990765571594	4.5816813441023927e-07
0.8614717125892639	5.448192525139337e-07
0.8646637797355652	6.463550144626255e-07
0.8678751587867737	7.652673904773978e-07
0.8711057901382446	9.039497920411594e-07
0.8743556141853333	1.065203963811054e-06
0.87762451171875	1.2524269436751012e-06
0.8809124231338501	1.4696672317067528e-06
0.8842192888259888	1.7215665556264496e-06
0.8875449895858765	2.0111946638171904e-06
0.8908893465995789	2.323794523363143e-06
0.894252359867096	2.6730600171848908e-06
0.8976338505744934	3.1339916508265813e-06
0.9010337591171265	3.6896364759863047e-06
0.9044519662857056	4.29083630254716e-06
0.9078882932662964	4.962903150584211e-06
0.9113426208496094	5.72576628648873e-06
0.914814829826355	6.593670743861729e-06
0.9183048605918884	7.58169729514797e-06
0.9218124747276306	8.707315861241932e-06
0.925337553024292	9.979856501083902e-06
0.9288799166679382	1.138574065545454e-05
0.9324395060539246	1.2946152144138062e-05
0.9360161423683167	1.4815475522117999e-05
0.9396095871925354	1.7104677231094562e-05
0.943219780921936	1.971914759088961e-05
0.9468464851379395	2.2666976426697048e-05
0.9504896402359009	2.611687358530389e-05
0.9541489481925964	3.0163557579697358e-05
0.9578243494033813	3.4900376802841154e-05
0.9615156054496765	4.0482924053243045e-05
0.9652225375175476	4.708369031021945e-05
0.9689450263977051	5.485961251884762e-05
0.9726828336715698	6.397042178088157e-05
0.9764357805252075	7.47134315266743e-05
0.9802037477493286	8.746623749144827e-05
0.983986496925354	0.0001025586417302274
0.9877838492393494	0.00012031612934864587
0.9915955662727356	0.00014111830925798917
0.9954215884208679	0.00016538362304512915
0.9992615580558777	0.00019351046447320998
1.0031154155731201	0.00022589365460006557
1.0069829225540161	0.00026298212055779523
1.0108637809753418	0.0003052986139811725
1.0147579908370972	0.00035341501989561065
1.018665075302124	0.00040793948973993574
1.022585153579712	0.0004695425967211972
1.0265177488327026	0.000538984847368262
1.0304628610610962	0.0006170857293410379
1.0344202518463135	0.0007047284260918182
1.0383895635604858	0.0008028716703900822
1.0423706769943237	0.0009125831105513256
1.0463634729385376	0.001035054439935544
1.0503677129745483	0.0011715866926210476
1.0543830394744873	0.0013236580833058636
1.058409333229065	0.0014929297385687028
1.0624464750289917	0.001681231703618386
1.0664942264556885	0.0018906497741993187
1.0705522298812866	0.002123532797684466
1.0746204853057861	0.002382423970044953
1.0786986351013184	0.0026702757426991246
1.0827864408493042	0.0029905612392649643
1.086883783340454	0.0033470510916633884
1.0909905433654785	0.0037440156729068364
1.0951062440872192	0.004186419359579332
1.0992310047149658	0.004678981093335544
1.10336434841156	0.005224676235019283
1.1075061559677124	0.005820964670504084
1.1116561889648438	0.006455868725621974
1.115814208984375	0.007117586533018525
1.1199802160263062	0.007832801327837119
1.124153733253479	0.008731594842277061
1.1283347606658936	0.009870624809759575
1.1325229406356812	0.011089197990193068
1.1367181539535522	0.012452248584610434
1.1409201622009277	0.01403892217206343
1.145128846168518	0.015683970680374155
1.1493438482284546	0.017476844497709903
1.1535650491714478	0.01958389258667163
1.1577922105789185	0.022026345785773196
1.1620250940322876	0.024802416146208567
1.1662636995315552	0.027884303800989704
1.170507550239563	0.03127246243791197
1.174756646156311	0.03501443201381131
1.1790107488632202	0.03916463697166597
1.1832695007324219	0.04378291794873433
1.1875330209732056	0.048933589701333574
1.191800832748413	0.054681215471218236
1.1960728168487549	0.06108570017876262
1.2003488540649414	0.06821944545128121
1.2046287059783936	0.07617091332599504
1.2089121341705322	0.08502369184057607
1.2131990194320679	0.09488270581816538
1.2174891233444214	0.10587567140109512
1.2217823266983032	0.11810275167901482
1.2260783910751343	0.1316964181158594
1.230377197265625	0.14681618750716574
1.2346785068511963	0.16361598742528202
1.238982081413269	0.18227631712177045
1.2432878017425537	0.20298505941910877
1.2475954294204712	0.2259558271216515
1.2519049644470215	0.251430187665243
1.256216049194336	0.27967206301914593
1.2605286836624146	0.3109641228348166
1.2648425102233887	0.3456083540635326
1.2691574096679688	0.3839351236648391
1.2734732627868652	0.42631373680639895
1.2777899503707886	0.4731612671416896
1.2821072340011597	0.5249273147014806
1.2864248752593994	0.5820259875200254
1.2907428741455078	0.644889806092061
1.2950609922409058	0.7141449565173367
1.2993791103363037	0.7904783894381917
1.303696870803833	0.8745030702465784
1.3080145120620728	0.9670142494422657
1.3123314380645752	1.0687969157519228
1.3166478872299194	1.1806275320396264
1.3209635019302368	1.3032025118333788
1.3252781629562378	1.4363803614412056
1.3295916318893433	1.5795007231382754
1.3339040279388428	1.7320052233337986
1.3382149934768677	1.8815052673547414
1.3425244092941284	1.9835334126332618
1.3468321561813354	1.985046173436573
1.3511382341384888	1.8907451583984314
1.3554422855377197	1.7923065612396547
1.3597444295883179	1.8061882165718743
1.3640443086624146	2.018165354148646
1.3683418035507202	2.4361840988497923
1.3726370334625244	2.9901063363157854
1.3769296407699585	3.3689641963327204
1.381219506263733	3.3586224971856007
1.3855066299438477	3.5159812522300333
1.3897908926010132	4.073335197608063
1.3940720558166504	4.5205647439509455
1.3983501195907593	4.923799220934349
1.4026249647140503	5.5068827245003655
1.4068963527679443	6.1383117359182355
1.4111642837524414	6.880998166361148
1.4154287576675415	7.702714748428726
1.419689416885376	8.561838901819538
1.4239463806152344	9.655855333187464
1.4281994104385376	10.875016207634307
1.4324485063552856	12.093377187720794
1.436693549156189	13.461161878287529
1.440934419631958	14.93764383305341
1.4451709985733032	16.439027191782174
1.449403166770935	18.058542438768615
1.453631043434143	19.898770927487984
1.4578542709350586	21.837326992890226
1.4620729684829712	23.633576559971214
1.4662868976593018	25.298712281658723
1.4704961776733398	27.069968091976346
1.4747005701065063	29.206918376230924
1.4788999557495117	31.62467261805637
1.4830944538116455	34.27654456792463
1.4872838258743286	37.17561228985112
1.491468071937561	40.26336276719909
1.4956470727920532	43.57902350320037
1.4998208284378052	47.072032856505686
1.5039892196655273	50.73237800135898
1.5081522464752197	54.59086281957101
1.5123097896575928	58.679378712297144
1.5164618492126465	63.03417049151343
1.5206083059310913	67.68396831580549
1.5247491598129272	72.6202379613276
1.5288842916488647	77.84857481028226
1.5330137014389038	83.39652450493863
1.5371372699737549	89.29158194401667
1.541254997253418	95.5367979724579
1.545366883277893	102.16770845780599
1.5494728088378906	109.2228416594836
1.5535727739334106	116.7034935119671
1.5576666593551636	124.62827314784562
1.561754584312439	133.0316655119816
1.5658363103866577	141.94151307690237
1.5699119567871094	151.36635940039872
1.5739814043045044	161.33031017486243
1.5780447721481323	171.86647068526855
1.582101821899414	182.99926381700766
1.5861525535583496	194.7689713736791
1.5901970863342285	207.20465599160158
1.5942351818084717	220.32703058250553
1.5982669591903687	234.16427305080254
1.6022924184799194	248.74437094401515
1.606311559677124	264.1008481572555
1.6103241443634033	279.9489850835785
1.6143304109573364	292.5306455041307
1.6183301210403442	290.15715329393663
1.6223233938217163	267.86999321215353
1.6263102293014526	242.36697171092814
1.6302905082702637	228.15570037093127
1.634264349937439	234.6889227924302
1.638231635093689	273.57905844366616
1.6421923637390137	321.15426352989135
1.646146535873413	337.5389062437091
1.6500942707061768	341.689992285653
1.6540353298187256	366.48717050460687
1.6579699516296387	415.85012319076526
1.661897897720337	434.8629074634457
1.6658192873001099	362.7288061378209
1.6697341203689575	362.772275876639
1.6736423969268799	492.8105582814879
1.677544116973877	571.748731538188
1.6814392805099487	569.2013823398934
1.6853278875350952	550.2148973230596
1.6892099380493164	540.269798038975
1.6930854320526123	541.1823651611417
1.696954369544983	510.064906393228
1.7008168697357178	411.9105758746265
1.7046726942062378	350.8258576960599
1.708522081375122	444.67664003209
1.712364912033081	656.205184545206
1.7162011861801147	834.7000713845147
1.7200311422348022	823.0422656034568
1.723854422569275	654.3502316307228
1.7276713848114014	544.4906842614519
1.731481909751892	598.4628905393654
1.7352858781814575	748.6421312858794
1.7390835285186768	912.5606019979311
1.7428747415542603	1041.5029995543623
1.7466596364974976	1145.7837086101358
1.7504380941390991	1276.352798908885
1.7542102336883545	1420.474566782538
1.7579760551452637	1492.2115700692564
1.7617355585098267	1446.0130699548386
1.7654887437820435	1389.751224327961
1.7692357301712036	1372.8343076764768
1.7729763984680176	1346.4810254530757
1.776710867881775	1475.1251771392263
1.7804391384124756	1710.9221797130965
1.7841613292694092	1683.3516553077432
1.7878772020339966	1424.2153335735559
1.7915871143341064	1226.9707267972378
1.7952908277511597	1391.1135852254051
1.7989884614944458	1690.8011994914086
1.8026801347732544	1704.4601111930247
1.806365728378296	1630.8814874808845
1.8100452423095703	1558.5546938836603
1.8137187957763672	1471.2743968521784
1.817386507987976	1493.7357858867836
1.8210482597351074	1688.7808175229804
1.8247040510177612	1960.0999745426363
1.828354001045227	1932.793208680517
1.8319982290267944	1773.457443169894
1.8356364965438843	1643.3548160279206
1.8392690420150757	1616.1671825081573
1.8428958654403687	2033.1922313852676
1.8465168476104736	2356.6827632158347
1.8501322269439697	2435.0631128709038
1.8537418842315674	2553.2988546956603
1.8573459386825562	2577.965721848716
1.860944390296936	2605.0155391358335
1.864537239074707	2555.024963170477
1.8681244850158691	2130.9989537133397
1.871706247329712	1827.5529192467015
1.8752825260162354	2444.7272239987165
1.8788533210754395	3603.9706459438567
1.8824186325073242	4275.48287633677
1.8859784603118896	4450.738680528603
1.8895330429077148	4554.809811959527
1.8930821418762207	4684.215986754984
1.8966259956359863	4468.59946653903
1.9001644849777222	3688.8632326294196
1.9036977291107178	3273.0473732238725
1.9072256088256836	3618.2069576785952
1.9107483625411987	3848.7216130294514
1.9142658710479736	3870.7491360432805
1.9177782535552979	4305.732758827848
1.9212853908538818	4652.030059940219
1.9247875213623047	4706.649321125746
1.9282845258712769	4625.354048229469
1.9317764043807983	4629.940338926746
1.9352631568908691	4708.5813860497765
1.9387450218200684	4763.195796789511
1.942221760749817	5548.639815070967
1.9456936120986938	6496.108245812951
1.9491604566574097	7075.775875969659
1.952622413635254	7241.758076643184
1.956079363822937	7318.613540299962
1.959531545639038	7942.84714914796
1.962978720664978	8602.969399319627
1.966421127319336	9269.044449652501
1.9698586463928223	9776.092204772418
1.9732913970947266	10173.915339871375
1.9767193794250488	10726.355696190805
1.9801424741744995	11136.162096563694
1.9835609197616577	11613.789217302268
1.9869745969772339	12027.746634860057
1.990383505821228	12307.703946220343
1.9937876462936401	12633.032703286804
1.9971871376037598	12770.336795287403
2.000581979751587	13041.037851124875
2.003972291946411	13597.774933116436
2.007357597351074	13994.808771735077
2.0107386112213135	14363.519445547607
2.0141148567199707	14781.463635299326
2.017486572265625	15091.550217195843
2.0208535194396973	15546.548446957993
2.0242159366607666	16068.407990139556
2.027573823928833	16384.100419836745
2.0309269428253174	16639.845198622865
2.034275770187378	17090.036336942154
2.0376198291778564	17711.70177526425
2.040959596633911	18259.64223261244
2.044294595718384	18698.162607427832
2.0476250648498535	19107.78710697414
2.0509510040283203	19482.52171500541
2.054272413253784	19926.629751246866
2.057589530944824	20514.25664885359
2.0609018802642822	21107.161083750336
2.0642096996307373	21625.94890453689
2.0675129890441895	22135.304435226484
2.0708119869232178	22670.434893136375
2.074106216430664	23231.429411943445
2.0773961544036865	23791.91255096162
2.080681324005127	24326.511710769162
2.0839622020721436	24898.27321092536
2.087238311767578	25526.97857927152
2.090510129928589	26142.338108665554
2.0937774181365967	26748.209385738694
2.0970399379730225	27362.385144681186
2.1002981662750244	27981.381689975213
2.1035518646240234	28619.352537971154
2.1068007946014404	29287.1657706708
2.1100454330444336	29964.993721899566
2.1132853031158447	30628.534734183053
2.116520881652832	31282.985525452368
2.1197516918182373	31950.19545252434
2.1229779720306396	32652.076028331798
2.12619948387146	33361.07301720016
2.1294167041778564	34051.59726905383
2.132629156112671	34751.49136455828
2.1358368396759033	35437.88388536079
2.139039993286133	35600.75113911822
2.1422386169433594	34882.40851046939
2.145432472229004	33999.16252135016
2.1486217975616455	32724.934133094488
2.151806354522705	31559.648154215698
2.1549863815307617	32262.466813028786
2.1581614017486572	33783.387074416096
2.16133189201355	34365.45630374446
2.1644976139068604	34978.912045329154
2.167658567428589	35957.360821881135
2.1708147525787354	37012.69442878333
2.173966407775879	38370.881882615126
2.1771130561828613	39556.973102912074
2.1802549362182617	40741.93955381221
2.183391809463501	41917.574359963306
2.1865241527557373	43785.38077673567
2.1896514892578125	45858.03016634394
2.1927738189697266	46129.62247068507
2.1958916187286377	38548.01080319867
2.1990041732788086	21955.718444339225
2.2021119594573975	12327.913731587738
2.2052149772644043	19839.471549733735
2.208312749862671	34494.11072599931
2.2114057540893555	42034.03541928176
2.214493751525879	38095.628871618595
2.217576742172241	27933.92000020664
2.2206547260284424	19376.276838236678
2.2237277030944824	14585.987252455374
2.2267956733703613	11176.239434938334
2.2298583984375	9054.063049817105
2.2329163551330566	8416.349519882859
2.235969066619873	9309.100335305297
2.2390167713165283	9822.666170220618
2.2420592308044434	8367.714303116909
2.2450966835021973	6842.645763522382
2.248128890991211	6105.960419338555
2.2511560916900635	5611.567784767219
2.254178285598755	5581.465394790593
2.257194995880127	7504.028425876881
2.260206699371338	9856.583405666452
2.2632133960723877	10516.834675939761
2.266214609146118	10557.403305115431
2.2692108154296875	11282.699109162277
2.2722020149230957	13690.72635301131
2.2751877307891846	15073.44448371969
2.278168201446533	16525.526190073157
2.2811436653137207	16635.061744649112
2.284113883972168	11870.998452050442
2.287078857421875	7627.089835766432
2.290038824081421	5871.249942531186
2.2929933071136475	4646.684273017918
2.295942783355713	3830.5012668587206
2.298887014389038	3839.0238011120823
2.301826238632202	4419.625026306973
2.304760217666626	6864.182580069215
2.3076889514923096	16799.879245186297
2.310612440109253	38475.92911110461
2.3135311603546143	51742.832348988086
2.3164443969726562	33753.06153359131
2.319352865219116	10388.292124127154
2.322256088256836	7852.2477061644595
2.3251543045043945	15511.272569618743
2.328047275543213	20289.4950745632
2.330935478210449	16554.774040351953
2.3338186740875244	9333.221114742999
2.3366971015930176	5008.458790891952
2.3395702838897705	3966.6808133645845
2.3424389362335205	4440.290443039192
2.3453025817871094	3746.5375104094683
2.348161458969116	3407.212446884522
2.351015567779541	4719.2744588348805
2.353865146636963	6620.501741323947
2.3567099571228027	12442.814522968552
2.3595502376556396	22584.417971062645
2.3623859882354736	27364.422597279165
2.3652172088623047	22407.697199336773
2.368043899536133	12559.091374108255
2.370866537094116	4435.349438124669
2.3736846446990967	2952.0652069997873
2.3764986991882324	8667.03110072039
2.3793084621429443	18388.061279798727
2.3821144104003906	23731.738741443303
2.384916305541992	22913.158070603007
2.387714147567749	22899.18707417118
2.3905084133148193	23839.42418742061
2.393299102783203	19478.97459382688
2.3960859775543213	11205.033626440354
2.398869514465332	6654.973817387828
2.4016497135162354	6781.245312630574
2.4044265747070312	8709.219150949764
2.407200336456299	11262.959581373201
2.409970998764038	14960.012516324057
2.4127390384674072	18586.10612858117
2.415503978729248	16599.887247235365
2.418266534805298	11876.845565907743
2.4210267066955566	10425.192170911942
2.4237842559814453	8495.80320235596
2.426539897918701	7194.819623287615
2.429293394088745	13857.177132508828
