#wavelength	surface flux
0.6450077295303345	2063.003113458325
0.6472567915916443	3324.6368169879556
0.6494921445846558	4520.256170669332
0.6517150402069092	5443.167544574561
0.6539263725280762	6462.6594896782735
0.6561272740364075	7604.136449723031
0.6583186388015747	8876.268791820197
0.6605015397071838	10286.892801042493
0.6626768708229065	11821.948582083716
0.6648455858230591	13444.643545660563
0.6670085787773132	14715.501777903572
0.6691668033599854	14593.50633893726
0.6713210344314575	15051.805662297707
0.6734722256660461	18676.347867926674
0.6756211519241333	22680.05937344978
0.6777685880661011	25135.787043084958
0.6799154281616211	27148.431850973437
0.6820623278617859	28991.50923300492
0.6842101216316223	30644.091646331988
0.6863595843315125	32048.98927089483
0.688511312007904	33081.38842188165
0.6906660795211792	33454.13411132809
0.6928245425224304	33338.75841810394
0.6949873566627502	33518.8885330108
0.6971551775932312	33811.655638567914
0.6993286609649658	33406.77885210737
0.7015084028244019	32391.60625025698
0.7036949396133423	31183.147875596133
0.7058889269828796	29848.611011767152
0.7080909013748169	28322.25641800693
0.710301399230957	26597.36177819399
0.712520956993103	24685.457797514122
0.7147500514984131	22397.005625391215
0.7169892191886902	19805.342467451195
0.7192389369010925	17687.953180454268
0.7214996814727783	16089.69537651466
0.723771870136261	14400.017531375432
0.7260559797286987	12707.572491752275
0.7283523678779602	11268.638139556822
0.7306615710258484	10038.078063329396
0.7329838871955872	9004.454412398476
0.7353196740150452	8100.61936235486
0.7376693487167358	7219.708456906771
0.7400332689285278	6416.2384113748385
0.7424117922782898	5719.7475104276555
0.7448052167892456	5120.058973423241
0.7472138404846191	4593.692808837119
0.7496379613876343	4115.506480979675
0.7520779371261597	3667.804150438214
0.7545340061187744	3224.5710696487313
0.7570064663887024	2756.369753305464
0.7594954967498779	2245.5642893996296
0.7620013952255249	1670.2812290850106
0.7645244002342224	1030.1362869883214
0.7670646905899048	572.5523755963837
0.7696225643157959	626.8462029872566
0.7721980810165405	1278.1408915141035
0.7747915983200073	2260.227051743046
0.7774031162261963	3144.403033421303
0.7800329327583313	3999.2260837668723
0.7826811671257019	5296.080314963495
0.7853479981422424	6881.317098681053
0.7880334854125977	8464.233622099351
0.7907378077507019	9874.411906103865
0.7934610247612	10835.07060019912
0.7962033748626709	13065.932197937094
0.7989648580551147	17427.581694641376
0.801745593547821	22163.076985849555
0.8045456409454346	26975.345013576592
0.8073651194572449	32324.37544956846
0.8102040886878967	37984.72505631159
0.8130625486373901	44442.80523254103
0.8159406185150146	53254.6804381627
0.8188382983207703	64610.40044246209
0.8217556476593018	76886.50287943606
0.8246926665306091	91353.88031429247
0.8276493549346924	108757.28864490264
0.8306257724761963	127405.78173693121
0.8336219191551208	148157.9356224782
0.8366377949714661	172089.13936191297
0.8396733403205872	199579.82506346365
0.8427285552024841	231325.6395874322
0.8458034992218018	265283.0872354467
0.8488980531692505	285914.12442161224
0.8520121574401855	301945.06721664494
0.8551458716392517	361208.89142064605
0.8582990765571594	439149.64428510726
0.8614717125892639	490279.6618227269
0.8646637797355652	538632.3914532413
0.8678751587867737	602742.8034598806
0.8711057901382446	674298.3636222477
0.8743556141853333	744925.7085961757
0.87762451171875	800087.1260924541
0.8809124231338501	808422.9342383877
0.8842192888259888	784380.9352793564
0.8875449895858765	768703.9094264534
0.8908893465995789	727377.2127552107
0.894252359867096	687273.752215687
0.8976338505744934	820262.4344653549
0.9010337591171265	1116402.7413487702
0.9044519662857056	1404128.2684733327
0.9078882932662964	1581298.492712651
0.9113426208496094	1648767.3526195677
0.914814829826355	1679093.0021954002
0.9183048605918884	1758549.2570548493
0.9218124747276306	1822360.4351925515
0.925337553024292	1542390.8785625512
0.9288799166679382	989091.6102190096
0.9324395060539246	715616.8932823023
0.9360161423683167	851237.1991557528
0.9396095871925354	1119108.012315015
0.943219780921936	1261627.7435695664
0.9468464851379395	1252085.2388607876
0.9504896402359009	1238332.1640829523
0.9541489481925964	1223686.00455521
0.9578243494033813	1187473.390512308
0.9615156054496765	1236688.3328263315
0.9652225375175476	1458374.510574058
0.9689450263977051	1754885.396657509
0.9726828336715698	1959219.2739700912
0.9764357805252075	2114000.5993093853
0.9802037477493286	2283310.7534981077
0.983986496925354	2434265.1736919014
0.9877838492393494	2641778.9374166057
0.9915955662727356	2955665.507963295
0.9954215884208679	3299834.1600555996
0.9992615580558777	3640956.265243294
1.0031154155731201	4077527.946996118
1.0069829225540161	4580349.315746333
1.0108637809753418	5049758.964911825
1.0147579908370972	5508278.4213840775
1.018665075302124	5949382.486316319
1.022585153579712	6364720.528400907
1.0265177488327026	6785310.317699574
1.0304628610610962	7213686.290692452
1.0344202518463135	7663264.188954577
1.0383895635604858	8145916.4504881725
1.0423706769943237	8592660.653115029
1.0463634729385376	8952159.627625387
1.0503677129745483	9282360.408550872
1.0543830394744873	9634968.621405711
1.058409333229065	9938633.668818168
1.0624464750289917	10179379.831642112
1.0664942264556885	10351948.747229792
1.0705522298812866	10443698.796684833
1.0746204853057861	10577665.406756714
1.0786986351013184	10708168.277153723
1.0827864408493042	10578478.023667868
1.086883783340454	9695698.215902617
1.0909905433654785	7824656.782357318
1.0951062440872192	5687503.898955117
1.0992310047149658	4051653.3693259633
1.10336434841156	2887745.570716699
1.1075061559677124	2027348.2044974105
1.1116561889648438	1430752.3448088598
1.115814208984375	1121232.7248903112
1.1199802160263062	1084988.9116485936
1.124153733253479	1204879.006076929
1.1283347606658936	1279842.2895913431
1.1325229406356812	1130479.2604388138
1.1367181539535522	1178023.402243855
1.1409201622009277	1513741.3924872286
1.145128846168518	1638232.5876314342
1.1493438482284546	1543337.4525417865
1.1535650491714478	1363370.3371029033
1.1577922105789185	1235383.2001645905
1.1620250940322876	1216309.1531229324
1.1662636995315552	1291569.0501383366
1.170507550239563	1595488.0627834147
1.174756646156311	2046512.3106663022
1.1790107488632202	2628701.868584518
1.1832695007324219	3387614.3408390284
1.1875330209732056	4141301.2219087505
1.191800832748413	5000508.87605686
1.1960728168487549	6048113.553757174
1.2003488540649414	7046418.554844519
1.2046287059783936	8009265.615864046
1.2089121341705322	8866336.214780478
1.2131990194320679	9594235.95637691
1.2174891233444214	10374723.338166444
1.2217823266983032	11158224.54010982
1.2260783910751343	11984724.352350093
1.230377197265625	12846392.926352238
1.2346785068511963	13570308.481874865
1.238982081413269	13987195.495682972
1.2432878017425537	14203001.621608123
1.2475954294204712	14389668.390400892
1.2519049644470215	14423908.777707746
1.256216049194336	15282120.278113475
1.2605286836624146	16568619.502413614
1.2648425102233887	16803864.960460544
1.2691574096679688	16364105.57758485
1.2734732627868652	15724761.172072532
1.2777899503707886	15007901.2702135
1.2821072340011597	14034661.337693276
1.2864248752593994	12734869.772214815
1.2907428741455078	11692757.736051066
1.2950609922409058	11233526.880843394
1.2993791103363037	10878941.259214224
1.303696870803833	10366430.460178262
1.3080145120620728	9799313.12950619
1.3123314380645752	8942123.494404783
1.3166478872299194	8159142.348781122
1.3209635019302368	7644523.443307587
1.3252781629562378	6464455.413794426
1.3295916318893433	4248981.666157814
1.3339040279388428	2048605.7095835495
1.3382149934768677	864222.1919522317
1.3425244092941284	445519.7149474038
1.3468321561813354	274038.5909188709
1.3511382341384888	181888.35992586927
1.3554422855377197	126034.89940578424
1.3597444295883179	113081.40436855418
1.3640443086624146	144736.6549520696
1.3683418035507202	177745.34583012538
1.3726370334625244	214121.11489482882
1.3769296407699585	270140.6050673796
1.381219506263733	268384.5043750051
1.3855066299438477	229537.32511194004
1.3897908926010132	224732.8186577615
1.3940720558166504	223713.1056028619
1.3983501195907593	220104.4753480626
1.4026249647140503	229705.6231537691
1.4068963527679443	232506.60064222824
1.4111642837524414	233998.14506979758
1.4154287576675415	248577.62761801961
1.419689416885376	254246.1661345976
1.4239463806152344	274626.6412869825
1.4281994104385376	348533.01684847474
1.4324485063552856	421324.529761636
1.436693549156189	457289.5209863572
1.440934419631958	502294.08841195895
1.4451709985733032	594340.9944771809
1.449403166770935	776298.6853244049
1.453631043434143	980155.0277180354
1.4578542709350586	1109777.073226003
1.4620729684829712	1142369.765445163
1.4662868976593018	1092185.2098497748
1.4704961776733398	1008824.5960805236
1.4747005701065063	1002614.1613573794
1.4788999557495117	1097579.2995117826
1.4830944538116455	1182318.0506946978
1.4872838258743286	1247286.8378883016
1.491468071937561	1334253.9127087635
1.4956470727920532	1487074.0467676262
1.4998208284378052	1708222.0695809966
1.5039892196655273	1872212.7423583742
1.5081522464752197	1945302.534158007
1.5123097896575928	2009336.5543712827
1.5164618492126465	2175600.4753875015
1.5206083059310913	2557526.7210130063
1.5247491598129272	3014137.479543398
1.5288842916488647	3415717.1781985527
1.5330137014389038	3811840.5940311793
1.5371372699737549	4159735.9473578967
1.541254997253418	4479465.6100502815
1.545366883277893	4914884.631689154
1.5494728088378906	5345403.490878323
1.5535727739334106	5666183.877640464
1.5576666593551636	6162255.752786524
1.561754584312439	7065869.033044347
1.5658363103866577	8066474.400705986
1.5699119567871094	8607212.381314348
1.5739814043045044	8806155.628462622
1.5780447721481323	9117719.63253996
1.582101821899414	9431644.60970978
1.5861525535583496	9453854.700701779
1.5901970863342285	9146164.036644824
1.5942351818084717	8693168.336945906
1.5982669591903687	8149916.120381876
1.6022924184799194	7362907.700928713
1.606311559677124	6475973.6137861265
1.6103241443634033	5685319.404568796
1.6143304109573364	4827805.03612494
1.6183301210403442	4030086.9659428587
1.6223233938217163	3680604.3444532757
1.6263102293014526	3681055.9193820194
1.6302905082702637	3819147.660922326
1.634264349937439	4238525.68051221
1.638231635093689	4922677.947842753
1.6421923637390137	5185279.528090657
1.646146535873413	4720035.905486582
1.6500942707061768	4549010.219465827
1.6540353298187256	4525976.787467849
1.6579699516296387	4297557.491799869
1.661897897720337	4192743.722964963
1.6658192873001099	2844235.242590662
1.6697341203689575	1388677.6500372111
1.6736423969268799	1793222.8358890011
1.677544116973877	2537426.477562051
1.6814392805099487	2533110.9943815246
1.6853278875350952	2283618.7887199013
1.6892099380493164	2009903.2479042534
1.6930854320526123	1668037.3921330771
1.696954369544983	1366818.9125225735
1.7008168697357178	1187017.8237106763
1.7046726942062378	1223935.3583597823
1.708522081375122	1535904.966147943
1.712364912033081	1882435.6881531887
1.7162011861801147	2183494.755084421
1.7200311422348022	2405138.0769262146
1.723854422569275	2304069.5109742563
1.7276713848114014	2127523.0219837558
1.731481909751892	2066702.2060488225
1.7352858781814575	2083380.0518281998
1.7390835285186768	2247464.5351364645
1.7428747415542603	2445842.0390185895
1.7466596364974976	2549390.3766297447
1.7504380941390991	2502259.5408404307
1.7542102336883545	2234818.047421519
1.7579760551452637	1941973.383787137
1.7617355585098267	1805344.2734808393
1.7654887437820435	1702014.8080994682
1.7692357301712036	1550453.7605987603
1.7729763984680176	1400585.0350819454
1.776710867881775	1367214.7735327953
1.7804391384124756	1401051.4697970336
1.7841613292694092	1288031.3677253
1.7878772020339966	1124892.415317563
1.7915871143341064	955879.6329327759
1.7952908277511597	870131.907217091
1.7989884614944458	908003.2658358893
1.8026801347732544	798421.7656634575
1.806365728378296	711067.4603616679
1.8100452423095703	759754.8175603522
1.8137187957763672	797763.3029705619
1.817386507987976	741469.1401508942
1.8210482597351074	766459.9357395311
1.8247040510177612	905605.6901265067
1.828354001045227	803042.905657706
1.8319982290267944	607465.6279553047
1.8356364965438843	520075.1819393918
1.8392690420150757	523298.36616317637
1.8428958654403687	659709.6418321816
1.8465168476104736	713498.902385056
1.8501322269439697	683708.8879468455
1.8537418842315674	671136.1101228982
1.8573459386825562	571908.9119829336
1.860944390296936	456949.11158287124
1.864537239074707	391345.6035772404
1.8681244850158691	342333.195487727
1.871706247329712	370083.59283143247
1.8752825260162354	564297.0247419217
1.8788533210754395	895002.0413006366
1.8824186325073242	1122126.4652459112
1.8859784603118896	1135230.7884490343
1.8895330429077148	1113055.2960611128
1.8930821418762207	1248254.3877564988
1.8966259956359863	1336050.2960038173
1.9001644849777222	1109558.7430142865
1.9036977291107178	915532.2132672973
1.9072256088256836	958389.3447778203
1.9107483625411987	924020.6087608201
1.9142658710479736	820268.0852759628
1.9177782535552979	846829.2528675434
1.9212853908538818	827867.4072303039
1.9247875213623047	714685.3234866525
1.9282845258712769	605685.1374898836
1.9317764043807983	526290.8515665605
1.9352631568908691	479092.1628220806
1.9387450218200684	436251.8645005109
1.942221760749817	484718.96267922537
1.9456936120986938	566226.9811704777
1.9491604566574097	585899.8581228186
1.952622413635254	579296.5412372712
1.956079363822937	587521.2922335464
1.959531545639038	652388.941757942
1.962978720664978	724036.4561548155
1.966421127319336	801892.9569115882
1.9698586463928223	843840.0594730249
1.9732913970947266	848857.5990599752
1.9767193794250488	942986.6932220225
1.9801424741744995	1021067.4049634156
1.9835609197616577	1092440.7801771734
1.9869745969772339	1216226.8174137387
1.990383505821228	1308945.914535646
1.9937876462936401	1511595.888789942
1.9971871376037598	1733271.5846745893
2.000581979751587	1847711.1782222013
2.003972291946411	1899452.015273225
2.007357597351074	1907014.7844509622
2.0107386112213135	2008718.411870399
2.0141148567199707	2070766.7499401649
2.017486572265625	1988488.3654374683
2.0208535194396973	2144302.086263897
2.0242159366607666	2474478.9326301687
2.027573823928833	2571318.1482886514
2.0309269428253174	2676495.4754868774
2.034275770187378	2944314.9318628437
2.0376198291778564	3089832.6622588066
2.040959596633911	3119571.7034975486
2.044294595718384	3364994.817017671
2.0476250648498535	3726683.242076317
2.0509510040283203	3825598.5467473366
2.054272413253784	3890597.2368612518
2.057589530944824	4186627.256787024
2.0609018802642822	4384642.388581773
2.0642096996307373	4459522.275095603
2.0675129890441895	4603379.149172512
2.0708119869232178	4723000.670387514
2.074106216430664	4799719.265486716
2.0773961544036865	4850517.630761884
2.080681324005127	4919275.296659828
2.0839622020721436	5003105.438318436
2.087238311767578	5066561.6221756395
2.090510129928589	5131429.920346251
2.0937774181365967	5132202.21212865
2.0970399379730225	5067432.053482465
2.1002981662750244	4958307.660520386
2.1035518646240234	4851787.453896843
2.1068007946014404	4761147.949437488
2.1100454330444336	4657553.918994613
2.1132853031158447	4609965.647740151
2.116520881652832	4497574.773689331
2.1197516918182373	4346349.11931775
2.1229779720306396	4282677.390102979
2.12619948387146	4212150.573502191
2.1294167041778564	4114293.565349282
2.132629156112671	4051429.8246744946
2.1358368396759033	3968256.7454658416
2.139039993286133	3763144.547204361
2.1422386169433594	3398793.130412331
2.145432472229004	3051248.1001904085
2.1486217975616455	2934864.6660308046
2.151806354522705	2902238.0926312837
2.1549863815307617	2801919.8611756344
2.1581614017486572	2643863.1790941474
2.16133189201355	2434592.17456796
2.1644976139068604	2259257.287238561
2.167658567428589	2119212.2410826534
2.1708147525787354	2028892.081426042
2.173966407775879	1973377.1067894737
2.1771130561828613	1868812.730126125
2.1802549362182617	1759586.3801314093
2.183391809463501	1627029.0714948156
2.1865241527557373	1468403.9621433672
2.1896514892578125	1261501.182082914
2.1927738189697266	962495.0146591684
2.1958916187286377	640021.5260347229
2.1990041732788086	368334.85542597366
2.2021119594573975	223893.20331561685
2.2052149772644043	221113.32247578268
2.208312749862671	297022.9640800465
2.2114057540893555	393363.02724462975
2.214493751525879	473770.5389290188
2.217576742172241	524648.7344955277
2.2206547260284424	528096.8689787281
2.2237277030944824	488893.90921093145
2.2267956733703613	430623.98599892925
2.2298583984375	372709.9876735556
2.2329163551330566	344046.02554775175
2.235969066619873	330528.4253993448
2.2390167713165283	290244.95591905294
2.2420592308044434	249196.27280260794
2.2450966835021973	222896.49338490242
2.248128890991211	195970.75047268864
2.2511560916900635	179230.92102231603
2.254178285598755	170915.57216280626
2.257194995880127	168279.46350880386
2.260206699371338	172357.29658320558
2.2632133960723877	179228.78123564576
2.266214609146118	187168.88984504237
2.2692108154296875	191364.92727163978
2.2722020149230957	192623.84307292852
2.2751877307891846	187196.70470616478
2.278168201446533	183976.76528513964
2.2811436653137207	176399.9742922312
2.284113883972168	149279.12269690968
2.287078857421875	129050.14845838242
2.290038824081421	118833.24190119837
2.2929933071136475	109405.56509166058
2.295942783355713	111945.72971607019
2.298887014389038	130271.49032460601
2.301826238632202	153267.0490458305
2.304760217666626	192680.18539225534
2.3076889514923096	289669.7521804376
2.310612440109253	428544.8871968409
2.3135311603546143	461432.8480165871
2.3164443969726562	291289.1080148746
2.319352865219116	116342.14113831923
2.322256088256836	81911.73484090003
2.3251543045043945	90930.86845784874
2.328047275543213	94330.33757222103
2.330935478210449	104441.75077057267
2.3338186740875244	117584.635800776
2.3366971015930176	127597.73684924007
2.3395702838897705	134750.19702937955
2.3424389362335205	136734.27473320972
2.3453025817871094	127037.2555061454
2.348161458969116	122480.2155215515
2.351015567779541	134934.90498095652
2.353865146636963	151731.57820355735
2.3567099571228027	173086.06119568957
2.3595502376556396	211291.34736687003
2.3623859882354736	253566.36513183557
2.3652172088623047	268903.3077345013
2.368043899536133	229471.01952502917
2.370866537094116	144897.29570152037
2.3736846446990967	102858.46909056435
2.3764986991882324	121560.5569524133
2.3793084621429443	134157.35118166223
2.3821144104003906	130496.25534045385
2.384916305541992	153913.50922902024
2.387714147567749	207483.97588705365
2.3905084133148193	232414.23855161094
2.393299102783203	225326.7219309488
2.3960859775543213	232950.38810870587
2.398869514465332	272818.18701904966
2.4016497135162354	324367.94058434345
2.4044265747070312	362391.7910340452
2.407200336456299	374257.14636377635
2.409970998764038	410026.8132698821
2.4127390384674072	469066.5589708154
2.415503978729248	448360.11553083395
2.418266534805298	393178.19338466646
2.4210267066955566	382260.9053813793
2.4237842559814453	354650.58245888393
2.426539897918701	338069.7826392455
2.429293394088745	405951.35427749425
2.4320452213287354	473336.1838284913
2.4347951412200928	465276.7513434052
2.4375438690185547	506845.66933535214
2.440291166305542	602889.4026479063
2.443037271499634	611297.8585273302
2.445782423019409	570106.5111826158
2.4485268592834473	561473.6266151215
2.451270818710327	568891.2965497612
2.454014539718628	602303.1016130552
2.4567582607269287	682908.5621603511
2.4595019817352295	733867.1247303337
2.4622461795806885	794004.7606463707
2.4649908542633057	877801.3893184408
2.4677364826202393	819767.4519501525
2.4704833030700684	707094.1985322848
2.473231554031372	671585.8514918948
2.4759814739227295	703180.5896165262
2.4787333011627197	740630.3011514308
