#wavelength	surface flux
0.6450077295303345	394.0878701623481
0.6472567915916443	612.033785606389
0.6494921445846558	778.2387451152421
0.6517150402069092	866.2659721335357
0.6539263725280762	954.11701429418
0.6561272740364075	1046.483379685476
0.6583186388015747	1143.0883686961927
0.6605015397071838	1244.7356022493118
0.6626768708229065	1350.207269839346
0.6648455858230591	1458.408235428724
0.6670085787773132	1554.439226794846
0.6691668033599854	1594.502180613288
0.6713210344314575	1653.0730461515516
0.6734722256660461	1830.655055928477
0.6756211519241333	2014.9674412891175
0.6777685880661011	2136.6220064719673
0.6799154281616211	2243.9095083379775
0.6820623278617859	2345.560281229444
0.6842101216316223	2440.870264447713
0.6863595843315125	2527.4013537717306
0.688511312007904	2594.4779814452913
0.6906660795211792	2625.9736034630937
0.6928245425224304	2642.9925731731164
0.6949873566627502	2693.19997871722
0.6971551775932312	2762.4787473705455
0.6993286609649658	2803.1868797485095
0.7015084028244019	2817.0550471028937
0.7036949396133423	2823.3751820453504
0.7058889269828796	2822.921735911317
0.7080909013748169	2814.8489435962997
0.710301399230957	2798.4708273408264
0.712520956993103	2767.4260275942274
0.7147500514984131	2695.989844789614
0.7169892191886902	2577.3827453283297
0.7192389369010925	2486.336282106611
0.7214996814727783	2440.904684729705
0.723771870136261	2372.9075709466388
0.7260559797286987	2288.8925689575676
0.7283523678779602	2221.4565372707093
0.7306615710258484	2169.8924090404453
0.7329838871955872	2144.3328754276486
0.7353196740150452	2121.8733974242223
0.7376693487167358	2075.21219108538
0.7400332689285278	2019.397503324301
0.7424117922782898	1960.3776599640175
0.7448052167892456	1893.025871900694
0.7472138404846191	1813.5474577601524
0.7496379613876343	1720.974415094041
0.7520779371261597	1613.951525221404
0.7545340061187744	1489.716663334355
0.7570064663887024	1347.2765114127972
0.7594954967498779	1177.7394015394254
0.7620013952255249	943.8095345013172
0.7645244002342224	628.3437886824694
0.7670646905899048	387.261203728498
0.7696225643157959	422.4924880501721
0.7721980810165405	772.1346491696701
0.7747915983200073	1253.179232239098
0.7774031162261963	1595.3058200343914
0.7800329327583313	1858.4380762552955
0.7826811671257019	2339.9530875786745
0.7853479981422424	2935.511125279102
0.7880334854125977	3440.3033047470158
0.7907378077507019	3817.810497895732
0.7934610247612	3994.468443583188
0.7962033748626709	4471.078600004117
0.7989648580551147	5468.42874349089
0.801745593547821	6432.120722061118
0.8045456409454346	7256.4987843000945
0.8073651194572449	8075.3221328658055
0.8102040886878967	8821.828930909858
0.8130625486373901	9547.74954597708
0.8159406185150146	10551.297118015287
0.8188382983207703	11917.25771318451
0.8217556476593018	13268.12272539881
0.8246926665306091	14680.440827925624
0.8276493549346924	16297.557187201137
0.8306257724761963	17869.174876258
0.8336219191551208	19520.15926110031
0.8366377949714661	21391.924769401678
0.8396733403205872	23429.6186152733
0.8427285552024841	25675.080792189783
0.8458034992218018	28152.5803506641
0.8488980531692505	30342.413403869985
0.8520121574401855	32412.18724861062
0.8551458716392517	35860.368655546554
0.8582990765571594	39966.14900923596
0.8614717125892639	43361.44392326989
0.8646637797355652	46684.96296635851
0.8678751587867737	50375.50912795201
0.8711057901382446	54197.49686928176
0.8743556141853333	57833.79411064423
0.87762451171875	60672.814167174976
0.8809124231338501	61503.20889369815
0.8842192888259888	60953.22773622712
0.8875449895858765	60977.09991543494
0.8908893465995789	60554.88953308556
0.894252359867096	59755.08174202801
0.8976338505744934	65242.13185145672
0.9010337591171265	78809.63657787154
0.9044519662857056	93265.13131513978
0.9078882932662964	102054.4678105705
0.9113426208496094	105651.52683797866
0.914814829826355	108241.54343824043
0.9183048605918884	113122.36044253607
0.9218124747276306	117320.58973207662
0.925337553024292	104149.82923779881
0.9288799166679382	71537.10858078116
0.9324395060539246	50934.47333969737
0.9360161423683167	60713.8588033046
0.9396095871925354	82594.49551289658
0.943219780921936	89824.07659692744
0.9468464851379395	84472.11066556549
0.9504896402359009	83773.25453883223
0.9541489481925964	84978.1917087844
0.9578243494033813	85662.38964896507
0.9615156054496765	93064.36764848225
0.9652225375175476	112603.26702561774
0.9689450263977051	138509.666159851
0.9726828336715698	156345.70919390375
0.9764357805252075	166647.5864241338
0.9802037477493286	178109.22218291002
0.983986496925354	191140.61417937104
0.9877838492393494	207056.825628969
0.9915955662727356	228349.1292538098
0.9954215884208679	253671.497970509
0.9992615580558777	280725.6650256099
1.0031154155731201	306654.86805541086
1.0069829225540161	324732.9002676315
1.0108637809753418	331573.4598668456
1.0147579908370972	329809.55249625834
1.018665075302124	324871.7648045929
1.022585153579712	328002.05563297856
1.0265177488327026	342577.2865455388
1.0304628610610962	354296.5456810555
1.0344202518463135	360260.97329190635
1.0383895635604858	376490.0518954765
1.0423706769943237	401843.8618654028
1.0463634729385376	424798.6472286445
1.0503677129745483	446528.8250777399
1.0543830394744873	468867.60212780844
1.058409333229065	486914.41753631475
1.0624464750289917	498555.0070873107
1.0664942264556885	504559.0555583358
1.0705522298812866	504622.71511235216
1.0746204853057861	503332.30146897654
1.0786986351013184	503514.92015777074
1.0827864408493042	501291.81785957556
1.086883783340454	489400.0636349075
1.0909905433654785	460825.9911089531
1.0951062440872192	414528.38383231085
1.0992310047149658	352162.22903818666
1.10336434841156	277127.8999917784
1.1075061559677124	200509.4087457129
1.1116561889648438	135124.60953198667
1.115814208984375	96079.55046589662
1.1199802160263062	88979.9123675672
1.124153733253479	104763.76923414013
1.1283347606658936	121213.28793697774
1.1325229406356812	118201.84171277602
1.1367181539535522	136387.81978792374
1.1409201622009277	175923.47329677115
1.145128846168518	175643.0001847108
1.1493438482284546	150901.68402991278
1.1535650491714478	131444.29998061195
1.1577922105789185	125496.75641115248
1.1620250940322876	137596.1737633181
1.1662636995315552	166215.09631128394
1.170507550239563	219315.50757258155
1.174756646156311	289421.31090087723
1.1790107488632202	362430.63006715704
1.1832695007324219	425456.78954023146
1.1875330209732056	470587.1041414786
1.191800832748413	506659.8384207535
1.1960728168487549	540516.4553998722
1.2003488540649414	572340.2789204031
1.2046287059783936	605493.0108196184
1.2089121341705322	633481.361355546
1.2131990194320679	656459.4962010761
1.2174891233444214	684470.9757205027
1.2217823266983032	719734.9381710818
1.2260783910751343	768067.0980763041
1.230377197265625	825054.7376135701
1.2346785068511963	877818.543965556
1.238982081413269	928368.4614287474
1.2432878017425537	980373.6269723458
1.2475954294204712	1025545.0263482999
1.2519049644470215	1058045.3009967634
1.256216049194336	1094674.4309419969
1.2605286836624146	1143976.639303678
1.2648425102233887	1187020.2361029233
1.2691574096679688	1207280.5226685815
1.2734732627868652	1198019.3030032613
1.2777899503707886	1164012.3067604343
1.2821072340011597	1110582.946669643
1.2864248752593994	1048216.3596012263
1.2907428741455078	1001085.644363675
1.2950609922409058	978263.6730968563
1.2993791103363037	960972.2317105803
1.303696870803833	933190.9276943767
1.3080145120620728	897552.185409422
1.3123314380645752	839439.0574790579
1.3166478872299194	786567.0556178412
1.3209635019302368	767179.7751568485
1.3252781629562378	710782.2450707958
1.3295916318893433	543105.0795105235
1.3339040279388428	328084.2063327842
1.3382149934768677	164380.5301068505
1.3425244092941284	67359.64841470748
1.3468321561813354	26411.773959329177
1.3511382341384888	12380.782414470585
1.3554422855377197	5995.9443630789365
1.3597444295883179	4603.873401745423
1.3640443086624146	7042.855948056474
1.3683418035507202	10224.211666554906
1.3726370334625244	16994.14656966168
1.3769296407699585	25942.296594984833
1.381219506263733	22828.12659032076
1.3855066299438477	13762.375609179246
1.3897908926010132	12414.394601570533
1.3940720558166504	14031.047041680238
1.3983501195907593	16192.647870746674
1.4026249647140503	19210.493103986377
1.4068963527679443	20195.489079939634
1.4111642837524414	20738.254349966002
1.4154287576675415	22773.932218230017
1.419689416885376	24312.71283802002
1.4239463806152344	30469.94997511137
1.4281994104385376	46669.44371185315
1.4324485063552856	60672.471842281004
1.436693549156189	67981.64463147592
1.440934419631958	81524.4936098188
1.4451709985733032	109864.9412392016
1.449403166770935	155214.00303988572
1.453631043434143	203452.3125649905
1.4578542709350586	239419.98575511563
1.4620729684829712	238862.1985745197
1.4662868976593018	200086.77041304205
1.4704961776733398	155004.5453164224
1.4747005701065063	131619.79353251896
1.4788999557495117	133089.0974783459
1.4830944538116455	140147.90205218797
1.4872838258743286	146722.98421481697
1.491468071937561	156234.56204712397
1.4956470727920532	179678.34408062606
1.4998208284378052	225388.09278132193
1.5039892196655273	259384.70493121337
1.5081522464752197	240329.21380402037
1.5123097896575928	195043.64256134492
1.5164618492126465	197991.88387375476
1.5206083059310913	263620.72032552713
1.5247491598129272	332640.9117842753
1.5288842916488647	386348.8780206995
1.5330137014389038	433190.12081403245
1.5371372699737549	473237.8701504774
1.541254997253418	519305.6861076631
1.545366883277893	574166.0786565009
1.5494728088378906	640015.1474946626
1.5535727739334106	731718.0313263226
1.5576666593551636	852443.898049765
1.561754584312439	1004147.3967811154
1.5658363103866577	1173812.995317122
1.5699119567871094	1307631.3908237603
1.5739814043045044	1394601.1073613171
1.5780447721481323	1477309.2309646574
1.582101821899414	1560910.1579427768
1.5861525535583496	1620953.3547076532
1.5901970863342285	1645149.8492862473
1.5942351818084717	1642505.357079819
1.5982669591903687	1611914.5016755424
1.6022924184799194	1532870.5842185647
1.606311559677124	1409010.725194096
1.6103241443634033	1257193.0994713588
1.6143304109573364	1076844.2422143046
1.6183301210403442	888422.2374861151
1.6223233938217163	738413.007058588
1.6263102293014526	634286.3578673166
1.6302905082702637	573736.3960313468
1.634264349937439	584978.548417582
1.638231635093689	653787.9453614083
1.6421923637390137	698589.6186442625
1.646146535873413	680372.6100697529
1.6500942707061768	682769.7041804892
1.6540353298187256	713841.0139082377
1.6579699516296387	771054.0872367094
1.661897897720337	768929.0649073123
1.6658192873001099	494499.049057506
1.6697341203689575	281015.65361229854
1.6736423969268799	401555.9316799445
1.677544116973877	525849.8825059066
1.6814392805099487	508930.4636093027
1.6853278875350952	461553.76882171805
1.6892099380493164	415483.0757827241
1.6930854320526123	356596.93845413666
1.696954369544983	302725.19512042624
1.7008168697357178	263610.76642795093
1.7046726942062378	259878.76679522012
1.708522081375122	326524.54086138506
1.712364912033081	427477.48891723267
1.7162011861801147	536167.4658304432
1.7200311422348022	613162.191616096
1.723854422569275	591880.7456637388
1.7276713848114014	556833.825566692
1.731481909751892	568092.9093762594
1.7352858781814575	600670.1103333554
1.7390835285186768	656164.2814416118
1.7428747415542603	708373.8453665456
1.7466596364974976	723201.4906779319
1.7504380941390991	696835.7619396128
1.7542102336883545	616929.0291406148
1.7579760551452637	528271.4766451574
1.7617355585098267	471427.42162704875
1.7654887437820435	413267.18096874637
1.7692357301712036	359950.58066544175
1.7729763984680176	315215.880200298
1.776710867881775	283028.26002246613
1.7804391384124756	269753.0108830503
1.7841613292694092	231331.65575377952
1.7878772020339966	183136.87768017713
1.7915871143341064	144742.01073097414
1.7952908277511597	122429.51455463296
1.7989884614944458	121855.5304129642
1.8026801347732544	92399.04761925519
1.806365728378296	66452.39665489954
1.8100452423095703	68424.3546128379
1.8137187957763672	66282.23135633348
1.817386507987976	57403.15667881368
1.8210482597351074	66081.8059238555
1.8247040510177612	84227.20811183842
1.828354001045227	65359.32631590081
1.8319982290267944	38592.89965673012
1.8356364965438843	30738.634750871468
1.8392690420150757	31845.565861679246
1.8428958654403687	53535.59589391873
1.8465168476104736	68710.486324992
1.8501322269439697	67579.15535892504
1.8537418842315674	63424.23533459411
1.8573459386825562	50599.28496354622
1.860944390296936	39192.14486198148
1.864537239074707	30709.541600088276
1.8681244850158691	20082.99385501549
1.871706247329712	18008.879766486138
1.8752825260162354	42946.92334884152
1.8788533210754395	96349.96868019545
1.8824186325073242	132577.61484616544
1.8859784603118896	127532.02216039789
1.8895330429077148	114046.13659879907
1.8930821418762207	127233.16973042036
1.8966259956359863	136142.99643284568
1.9001644849777222	94504.09259600104
1.9036977291107178	57764.951002521324
1.9072256088256836	59684.65613431561
1.9107483625411987	57705.144567614065
1.9142658710479736	47032.56815915714
1.9177782535552979	47798.439439460264
1.9212853908538818	47330.36390234031
1.9247875213623047	39241.023345404195
1.9282845258712769	31787.967657655092
1.9317764043807983	27691.9733171538
1.9352631568908691	25816.36085319687
1.9387450218200684	23062.461769660255
1.942221760749817	25866.255766490332
1.9456936120986938	32849.239928423194
1.9491604566574097	37355.8829114966
1.952622413635254	38220.39918897872
1.956079363822937	43490.50899661396
1.959531545639038	56447.982791146635
1.962978720664978	66781.58222723957
1.966421127319336	76171.24987729981
1.9698586463928223	78008.4797346795
1.9732913970947266	78700.69857831621
1.9767193794250488	94695.56272103584
1.9801424741744995	99410.50006730681
1.9835609197616577	102199.4628150102
1.9869745969772339	123691.18151029915
1.990383505821228	138304.75499642704
1.9937876462936401	161598.40230976007
1.9971871376037598	195296.43456217487
2.000581979751587	207252.4294186745
2.003972291946411	204046.6171900299
2.007357597351074	207782.26957072483
2.0107386112213135	221675.01203393764
2.0141148567199707	222395.96206161118
2.017486572265625	200318.16688516122
2.0208535194396973	194723.48592358254
2.0242159366607666	220026.2940630167
2.027573823928833	239469.8203787325
2.0309269428253174	256503.14349004702
2.034275770187378	282900.7925578769
2.0376198291778564	301870.50337994524
2.040959596633911	319232.69843080273
2.044294595718384	354961.96324660355
2.0476250648498535	393487.1804451072
2.0509510040283203	418264.22989035037
2.054272413253784	441235.77348257526
2.057589530944824	469171.72985985514
2.0609018802642822	496569.8890202498
2.0642096996307373	517707.1068289393
2.0675129890441895	535349.9338406917
2.0708119869232178	551794.9583243491
2.074106216430664	566219.4427200414
2.0773961544036865	576735.0984818983
2.080681324005127	584371.298736929
2.0839622020721436	593686.1050543755
2.087238311767578	601834.0042984885
2.090510129928589	607850.7325784763
2.0937774181365967	609312.917002553
2.0970399379730225	605464.5628641626
2.1002981662750244	600669.7224447692
2.1035518646240234	598407.0214905972
2.1068007946014404	595483.3932107773
2.1100454330444336	588902.7099256689
2.1132853031158447	585146.884562304
2.116520881652832	577475.5493435707
2.1197516918182373	566502.5576239194
2.1229779720306396	558735.425739749
2.12619948387146	550529.0128179509
2.1294167041778564	541101.9219170887
2.132629156112671	531052.9389515836
2.1358368396759033	519030.1058358651
2.139039993286133	503712.42110827396
2.1422386169433594	476951.2389560391
2.145432472229004	447491.0911632246
2.1486217975616455	428563.36308080715
2.151806354522705	412512.5352686433
2.1549863815307617	396002.31215833407
2.1581614017486572	377944.89245597273
2.16133189201355	349965.6353874237
2.1644976139068604	323525.00217694486
2.167658567428589	304500.655895397
2.1708147525787354	288067.27665939654
2.173966407775879	274625.6090114581
2.1771130561828613	253406.97301257297
2.1802549362182617	230597.63739945623
2.183391809463501	215066.80611117705
2.1865241527557373	202430.58743504118
2.1896514892578125	176610.70682541447
2.1927738189697266	133737.09895578361
2.1958916187286377	87588.6356982104
2.1990041732788086	47874.92929565831
2.2021119594573975	28043.778290930954
2.2052149772644043	34154.17791731806
2.208312749862671	54664.48874483296
2.2114057540893555	68308.92267397094
2.214493751525879	69731.99251855761
2.217576742172241	69326.98698331957
2.2206547260284424	65096.57863489143
2.2237277030944824	59051.144971800066
2.2267956733703613	52080.65135595509
2.2298583984375	42212.007473613
2.2329163551330566	39774.6506871656
2.235969066619873	40890.5898620447
2.2390167713165283	35351.667558862115
2.2420592308044434	30176.14194769262
2.2450966835021973	27528.82430593547
2.248128890991211	23058.399743868875
2.2511560916900635	19863.53940792829
2.254178285598755	17661.292575241878
2.257194995880127	15791.565459974974
2.260206699371338	15572.864185958599
2.2632133960723877	16144.26610080191
2.266214609146118	17602.48097862403
2.2692108154296875	20114.041879500186
2.2722020149230957	22933.583164514996
2.2751877307891846	23144.453349075782
2.278168201446533	22922.62100721522
2.2811436653137207	22626.55336601736
2.284113883972168	19384.889150779098
2.287078857421875	17565.596966215424
2.290038824081421	16610.187862409126
2.2929933071136475	14926.165155224822
2.295942783355713	14554.14062532231
2.298887014389038	16132.147894141515
2.301826238632202	19094.42339011719
2.304760217666626	25062.234095512118
2.3076889514923096	42694.04605685621
2.310612440109253	69593.10237338523
2.3135311603546143	72967.16379317238
2.3164443969726562	40037.16845836483
2.319352865219116	12304.69408628334
2.322256088256836	10517.596496028384
2.3251543045043945	15312.119121285514
2.328047275543213	16238.793423699655
2.330935478210449	15189.02637467102
2.3338186740875244	15081.015274510413
2.3366971015930176	14702.494397715942
2.3395702838897705	13564.634705152968
2.3424389362335205	13554.48214318518
2.3453025817871094	13183.23224448866
2.348161458969116	13338.815969833828
2.351015567779541	16349.850270083867
2.353865146636963	20341.677805364336
2.3567099571228027	26025.00512053007
2.3595502376556396	36573.21733442397
2.3623859882354736	45992.005927110884
2.3652172088623047	44503.18191274308
2.368043899536133	31360.95852229295
2.370866537094116	15733.13417152815
2.3736846446990967	11089.126112888938
2.3764986991882324	18546.977238397052
2.3793084621429443	27246.28434693107
2.3821144104003906	29692.877315414797
2.384916305541992	31545.013015383756
2.387714147567749	38498.087126023805
2.3905084133148193	42235.61492643281
2.393299102783203	39274.05129519121
2.3960859775543213	39055.71369389132
2.398869514465332	48208.321415053506
2.4016497135162354	57840.759286014756
2.4044265747070312	59214.526569331494
2.407200336456299	58772.752681191014
2.409970998764038	74162.64486138623
2.4127390384674072	96199.76844936026
2.415503978729248	89002.78704089472
2.418266534805298	71761.92863506707
2.4210267066955566	75275.66137443054
2.4237842559814453	74730.53578081416
2.426539897918701	71154.38757064244
2.429293394088745	91880.3962781849
2.4320452213287354	111108.51629187929
2.4347951412200928	102703.67525231802
2.4375438690185547	111287.1804807864
2.440291166305542	143956.38984461152
2.443037271499634	149546.55827127106
2.445782423019409	131381.3215930383
2.4485268592834473	123421.4468296982
2.451270818710327	128697.46899788514
2.454014539718628	144990.75753568133
2.4567582607269287	167406.76373947662
2.4595019817352295	177596.80472561932
2.4622461795806885	187960.29436528872
2.4649908542633057	207196.32236016417
2.4677364826202393	198190.9577497143
2.4704833030700684	169077.68469109156
2.473231554031372	152388.97917354983
2.4759814739227295	153513.40360369242
2.4787333011627197	156903.0996839754
2.481487512588501	157910.64032489568
