#wavelength	surface flux
0.6450077295303345	445.5040821951112
0.6472567915916443	698.2351244386175
0.6494921445846558	905.1531485825823
0.6517150402069092	1030.3215844826818
0.6539263725280762	1156.4563318710223
0.6561272740364075	1288.0120450163831
0.6583186388015747	1426.6470263863714
0.6605015397071838	1575.983829392606
0.6626768708229065	1732.2040657446905
0.6648455858230591	1891.3535990785335
0.6670085787773132	2028.8684013053846
0.6691668033599854	2075.9600223010225
0.6713210344314575	2149.187910853322
0.6734722256660461	2404.704680112888
0.6756211519241333	2665.3723914903635
0.6777685880661011	2821.8921551786575
0.6799154281616211	2949.981875214023
0.6820623278617859	3063.513384302696
0.6842101216316223	3161.7479814632406
0.6863595843315125	3241.9129307396975
0.688511312007904	3290.9261361155977
0.6906660795211792	3263.91662185857
0.6928245425224304	3183.75798185144
0.6949873566627502	3188.395337141528
0.6971551775932312	3262.548593970385
0.6993286609649658	3263.477758714102
0.7015084028244019	3200.140099067539
0.7036949396133423	3145.515216548263
0.7058889269828796	3104.0213794581587
0.7080909013748169	3057.4778583581256
0.710301399230957	2997.259043886174
0.712520956993103	2910.1940358182255
0.7147500514984131	2733.6144044537787
0.7169892191886902	2453.021931159556
0.7192389369010925	2254.9183454769986
0.7214996814727783	2186.894294136224
0.723771870136261	2084.2220023949008
0.7260559797286987	1954.0465894744355
0.7283523678779602	1864.283941320039
0.7306615710258484	1811.8254017721242
0.7329838871955872	1819.0992569388955
0.7353196740150452	1837.0554918604498
0.7376693487167358	1809.2996143422274
0.7400332689285278	1769.3653712184887
0.7424117922782898	1728.2670456846438
0.7448052167892456	1674.11476548481
0.7472138404846191	1600.006008807231
0.7496379613876343	1506.2157023295986
0.7520779371261597	1397.4593914499771
0.7545340061187744	1275.8442320349234
0.7570064663887024	1137.3514706491983
0.7594954967498779	964.9937949749666
0.7620013952255249	732.7446624446814
0.7645244002342224	450.9156588576505
0.7670646905899048	249.84223102908828
0.7696225643157959	274.94354063827876
0.7721980810165405	561.1568628448075
0.7747915983200073	976.9142136915711
0.7774031162261963	1272.7856258822812
0.7800329327583313	1486.2951258818498
0.7826811671257019	1927.32005239122
0.7853479981422424	2500.2033750323412
0.7880334854125977	2984.9350896964506
0.7907378077507019	3326.3714685314785
0.7934610247612	3436.8815195748875
0.7962033748626709	3879.0465429349492
0.7989648580551147	4898.291101538153
0.801745593547821	5860.1185653964
0.8045456409454346	6636.695419510857
0.8073651194572449	7327.449885880253
0.8102040886878967	7763.585471577556
0.8130625486373901	8066.357826783178
0.8159406185150146	8882.701199927842
0.8188382983207703	10404.533907535595
0.8217556476593018	11870.397241887362
0.8246926665306091	13489.407905479287
0.8276493549346924	15562.81483496367
0.8306257724761963	17524.96819650403
0.8336219191551208	19648.078548056943
0.8366377949714661	22274.94721378681
0.8396733403205872	25299.442539760166
0.8427285552024841	28695.01654119126
0.8458034992218018	32414.940504072267
0.8488980531692505	35651.292542810246
0.8520121574401855	38605.71564456093
0.8551458716392517	43507.92392172675
0.8582990765571594	49162.04995546401
0.8614717125892639	53507.85350925141
0.8646637797355652	58072.14967829538
0.8678751587867737	63979.51412835912
0.8711057901382446	70533.85059590507
0.8743556141853333	76406.80461251883
0.87762451171875	79332.3846896244
0.8809124231338501	75963.31628599939
0.8842192888259888	69128.91639819628
0.8875449895858765	64907.00822750845
0.8908893465995789	61307.24460851303
0.894252359867096	57153.546466759064
0.8976338505744934	64184.86449473624
0.9010337591171265	88945.1326491108
0.9044519662857056	117880.03677666429
0.9078882932662964	132343.48435992442
0.9113426208496094	133603.6821059166
0.914814829826355	133384.2421632524
0.9183048605918884	139922.0851084374
0.9218124747276306	146407.95078838718
0.925337553024292	119501.09258660051
0.9288799166679382	62122.2239398216
0.9324395060539246	27815.120421684886
0.9360161423683167	36047.49754060855
0.9396095871925354	59961.217175793856
0.943219780921936	66637.11041653143
0.9468464851379395	56771.071955288244
0.9504896402359009	52152.13167028903
0.9541489481925964	50915.47810956959
0.9578243494033813	50046.23384555945
0.9615156054496765	57620.6571289446
0.9652225375175476	83842.07586718854
0.9689450263977051	122081.34430248983
0.9726828336715698	146665.5927215371
0.9764357805252075	158816.7974545922
0.9802037477493286	174306.7885925962
0.983986496925354	192597.1122191515
0.9877838492393494	216221.91177584967
0.9915955662727356	252292.3436346049
0.9954215884208679	300450.90298398404
0.9992615580558777	355775.7380120741
1.0031154155731201	410754.8352986276
1.0069829225540161	446355.2985024106
1.0108637809753418	449986.0462857133
1.0147579908370972	427198.527793833
1.018665075302124	395524.8724160876
1.022585153579712	391091.18828869064
1.0265177488327026	424472.03340800095
1.0304628610610962	445010.7846954371
1.0344202518463135	438553.14786830876
1.0383895635604858	461259.00241977087
1.0423706769943237	514163.3756253942
1.0463634729385376	559387.3798905449
1.0503677129745483	599548.0217741535
1.0543830394744873	643482.7248699842
1.058409333229065	679991.3943992833
1.0624464750289917	699694.2065932018
1.0664942264556885	703090.2953250356
1.0705522298812866	695901.4542762544
1.0746204853057861	692531.9959991946
1.0786986351013184	692626.9849011883
1.0827864408493042	682911.1863703588
1.086883783340454	645086.0345144827
1.0909905433654785	561130.8386511463
1.0951062440872192	441241.5919831201
1.0992310047149658	312773.7642077034
1.10336434841156	195441.14003577392
1.1075061559677124	107395.4280841083
1.1116561889648438	52795.4897221987
1.115814208984375	26452.6677942286
1.1199802160263062	21215.852799420147
1.124153733253479	26027.976977443126
1.1283347606658936	31830.34478777912
1.1325229406356812	32668.568491429534
1.1367181539535522	45578.379932011354
1.1409201622009277	65195.69343803648
1.145128846168518	60921.19084979559
1.1493438482284546	44208.816459768044
1.1535650491714478	31835.197583869376
1.1577922105789185	26633.592391809347
1.1620250940322876	29920.95370386912
1.1662636995315552	42572.483050344796
1.170507550239563	74537.00292446735
1.174756646156311	126076.25142354274
1.1790107488632202	188888.72062283094
1.1832695007324219	248621.2035268055
1.1875330209732056	292291.1589365376
1.191800832748413	327939.271675586
1.1960728168487549	364627.60171865777
1.2003488540649414	401777.20253282355
1.2046287059783936	441888.96534020454
1.2089121341705322	472785.11416327185
1.2131990194320679	494786.1729824557
1.2174891233444214	524040.70172034914
1.2217823266983032	567833.9074891752
1.2260783910751343	642058.3072692618
1.230377197265625	738553.5713287061
1.2346785068511963	834063.9272072427
1.238982081413269	936169.328156954
1.2432878017425537	1050669.0627658884
1.2475954294204712	1154905.9375270205
1.2519049644470215	1231600.56133251
1.256216049194336	1316393.0073341955
1.2605286836624146	1436029.6921045322
1.2648425102233887	1539436.5149337032
1.2691574096679688	1558920.029397783
1.2734732627868652	1473801.253370837
1.2777899503707886	1322625.7308094788
1.2821072340011597	1141289.7435662737
1.2864248752593994	963750.1295935735
1.2907428741455078	843448.127991114
1.2950609922409058	787361.7753088288
1.2993791103363037	746490.4428467487
1.303696870803833	687615.528334944
1.3080145120620728	622858.7299998116
1.3123314380645752	534456.5666532821
1.3166478872299194	460338.66431817604
1.3209635019302368	443422.62065144524
1.3252781629562378	399018.19032344077
1.3295916318893433	265256.91863688646
1.3339040279388428	118441.81435428715
1.3382149934768677	40709.50581673531
1.3425244092941284	12249.245080411634
1.3468321561813354	2935.361033582212
1.3511382341384888	1030.783839626495
1.3554422855377197	372.400255555766
1.3597444295883179	196.5054268552064
1.3640443086624146	293.6921485410481
1.3683418035507202	449.46067094806114
1.3726370334625244	944.4412751806319
1.3769296407699585	1617.367373722389
1.381219506263733	1377.0093320732021
1.3855066299438477	731.937117362907
1.3897908926010132	687.0626929277621
1.3940720558166504	850.5809957400675
1.3983501195907593	1019.6825916560014
1.4026249647140503	1211.0165120111442
1.4068963527679443	1297.5195791219614
1.4111642837524414	1484.1688977066256
1.4154287576675415	1808.594357295092
1.419689416885376	2001.749171902338
1.4239463806152344	2964.2065922375423
1.4281994104385376	5805.630024588118
1.4324485063552856	7927.205786510938
1.436693549156189	8270.255110941504
1.440934419631958	10484.152131372066
1.4451709985733032	16621.93431284199
1.449403166770935	26683.068415946327
1.453631043434143	38070.87816956212
1.4578542709350586	47237.10263039576
1.4620729684829712	44444.83090922571
1.4662868976593018	30528.09925902297
1.4704961776733398	18041.309310701345
1.4747005701065063	11810.287428450265
1.4788999557495117	11332.992465314976
1.4830944538116455	12377.250578912945
1.4872838258743286	12760.944785314266
1.491468071937561	13019.35253134284
1.4956470727920532	15805.48581493559
1.4998208284378052	22899.420585163953
1.5039892196655273	28185.399810317198
1.5081522464752197	24045.65688714511
1.5123097896575928	15073.610881626739
1.5164618492126465	14724.908008700708
1.5206083059310913	26209.679255759944
1.5247491598129272	39623.55160601853
1.5288842916488647	51495.81819749814
1.5330137014389038	62597.15792638033
1.5371372699737549	71534.94139896633
1.541254997253418	83424.22755768467
1.545366883277893	100582.55508205714
1.5494728088378906	125239.92397578852
1.5535727739334106	170150.34600256657
1.5576666593551636	240313.04851117605
1.561754584312439	341995.6532422289
1.5658363103866577	474283.98395647557
1.5699119567871094	590545.4627112057
1.5739814043045044	672204.714667201
1.5780447721481323	757916.8208470134
1.582101821899414	851021.986128992
1.5861525535583496	920121.4763465311
1.5901970863342285	946446.9912051597
1.5942351818084717	937992.1242475923
1.5982669591903687	894760.8554656033
1.6022924184799194	799840.5688211806
1.606311559677124	668958.8743850061
1.6103241443634033	529850.922567596
1.6143304109573364	385765.4255507946
1.6183301210403442	258144.88783134005
1.6223233938217163	178378.38678238943
1.6263102293014526	136201.44257306735
1.6302905082702637	117294.59396107263
1.634264349937439	125896.09445341339
1.638231635093689	152725.45040383725
1.6421923637390137	166126.4039784146
1.646146535873413	150656.4751705186
1.6500942707061768	146807.94618443132
1.6540353298187256	161306.04377345627
1.6579699516296387	186331.4672890462
1.661897897720337	197403.82651960372
1.6658192873001099	121796.49948159231
1.6697341203689575	47837.6291347941
1.6736423969268799	59220.79048737598
1.677544116973877	78946.9546104578
1.6814392805099487	72110.45196757234
1.6853278875350952	61680.96643469218
1.6892099380493164	52017.70252818187
1.6930854320526123	39052.71961063134
1.696954369544983	28614.252260285422
1.7008168697357178	21914.87657480046
1.7046726942062378	21560.733590213407
1.708522081375122	34654.73469890548
1.712364912033081	57037.86977327186
1.7162011861801147	86175.20720686874
1.7200311422348022	105922.53522224177
1.723854422569275	94873.97567241802
1.7276713848114014	81826.05439298361
1.731481909751892	85700.29576177185
1.7352858781814575	97892.50207779693
1.7390835285186768	120484.3557246074
1.7428747415542603	144754.1739378819
1.7466596364974976	156515.33764222887
1.7504380941390991	152786.5895871234
1.7542102336883545	128804.44357817627
1.7579760551452637	99683.08022576969
1.7617355585098267	83033.19537552669
1.7654887437820435	71476.03273330677
1.7692357301712036	61544.82077105747
1.7729763984680176	51802.968964035244
1.776710867881775	47608.38172098357
1.7804391384124756	49389.27746964551
1.7841613292694092	42606.69480793021
1.7878772020339966	31203.575646884354
1.7915871143341064	22369.29267168128
1.7952908277511597	18307.461675955685
1.7989884614944458	19648.581182115675
1.8026801347732544	14420.849381283999
1.806365728378296	8808.562002344428
1.8100452423095703	8507.47754778785
1.8137187957763672	7562.444873860095
1.817386507987976	6244.013061587749
1.8210482597351074	8115.552230801626
1.8247040510177612	10845.334648076132
1.828354001045227	7556.213579620012
1.8319982290267944	3309.9569918806055
1.8356364965438843	2299.884996123392
1.8392690420150757	2637.2485744956966
1.8428958654403687	5784.628113425342
1.8465168476104736	8080.067892172037
1.8501322269439697	7955.416838084376
1.8537418842315674	7342.400020325076
1.8573459386825562	5599.945564629312
1.860944390296936	4131.120541477421
1.864537239074707	3136.6704909768314
1.8681244850158691	1808.533129834977
1.871706247329712	1269.075820894623
1.8752825260162354	4033.7664633936647
1.8788533210754395	11224.123401749497
1.8824186325073242	16388.103444323053
1.8859784603118896	15453.658231592983
1.8895330429077148	13172.147216769392
1.8930821418762207	14834.046704345945
1.8966259956359863	16239.837730434709
1.9001644849777222	10302.581070534103
1.9036977291107178	4927.356116071045
1.9072256088256836	5082.7406777112965
1.9107483625411987	4895.142426307382
1.9142658710479736	3754.2402132504335
1.9177782535552979	3930.1181642626907
1.9212853908538818	4101.847349996558
1.9247875213623047	3397.312336087209
1.9282845258712769	2586.054174853118
1.9317764043807983	2128.4784284884927
1.9352631568908691	1981.8352185958888
1.9387450218200684	1761.5574029181985
1.942221760749817	2006.2808707236686
1.9456936120986938	2705.5389763101875
1.9491604566574097	3080.3321654182837
1.952622413635254	3156.1832647440865
1.956079363822937	4217.787129700498
1.959531545639038	6211.11156009048
1.962978720664978	7460.462728025354
1.966421127319336	8434.388119308967
1.9698586463928223	8437.212410470329
1.9732913970947266	8423.418453327971
1.9767193794250488	10749.487688556324
1.9801424741744995	10848.028161606222
1.9835609197616577	10029.527700555132
1.9869745969772339	12807.43604724165
1.990383505821228	15755.275938790592
1.9937876462936401	20246.297243236208
1.9971871376037598	26448.683149944613
2.000581979751587	28246.296669690648
2.003972291946411	26080.573027590886
2.007357597351074	26061.75066482043
2.0107386112213135	27990.938879548685
2.0141148567199707	27220.864337523963
2.017486572265625	23361.89928585418
2.0208535194396973	21919.03641534044
2.0242159366607666	25806.544180339562
2.027573823928833	29712.516850179796
2.0309269428253174	33436.36264447533
2.034275770187378	38126.09766242062
2.0376198291778564	40662.48991888824
2.040959596633911	43430.11279965658
2.044294595718384	50514.79225625962
2.0476250648498535	57908.15058681292
2.0509510040283203	63077.89389939876
2.054272413253784	68268.6821169237
2.057589530944824	74134.78341636552
2.0609018802642822	80404.49852490079
2.0642096996307373	85609.96653220437
2.0675129890441895	89839.1423095272
2.0708119869232178	93797.44539852974
2.074106216430664	97465.43136937462
2.0773961544036865	100183.78147286875
2.080681324005127	101927.84668698232
2.0839622020721436	104277.19158953663
2.087238311767578	106417.63091367735
2.090510129928589	108026.31626129968
2.0937774181365967	108426.65796815704
2.0970399379730225	107222.51987531397
2.1002981662750244	105926.55773418472
2.1035518646240234	105648.27467690443
2.1068007946014404	105229.3530855848
2.1100454330444336	103540.8200228984
2.1132853031158447	102472.56617507646
2.116520881652832	100565.45400221949
2.1197516918182373	97818.10066575257
2.1229779720306396	95696.07983195459
2.12619948387146	93601.64041117337
2.1294167041778564	91540.05194155137
2.132629156112671	89512.07388028027
2.1358368396759033	87318.79509922904
2.139039993286133	84296.90649241081
2.1422386169433594	78007.08455516677
2.145432472229004	71170.32903142307
2.1486217975616455	67049.55266107673
2.151806354522705	63500.00694553364
2.1549863815307617	59653.40832727665
2.1581614017486572	55953.366366512935
2.16133189201355	50382.941896253804
2.1644976139068604	44876.55928280449
2.167658567428589	41234.22286270433
2.1708147525787354	38544.51583028213
2.173966407775879	37090.546800000986
2.1771130561828613	34047.552264325655
2.1802549362182617	30233.997020707506
2.183391809463501	27870.637674110178
2.1865241527557373	26290.586181095612
2.1896514892578125	22259.057301748937
2.1927738189697266	15277.552944329842
2.1958916187286377	8564.99272998349
2.1990041732788086	3772.76124991336
2.2021119594573975	1695.9734821270158
2.2052149772644043	2450.750025874543
2.208312749862671	4830.555220830125
2.2114057540893555	6356.895763206792
2.214493751525879	6299.527803973762
2.217576742172241	5988.623194956291
2.2206547260284424	5325.756306558217
2.2237277030944824	4541.808815886719
2.2267956733703613	3816.8661320137358
2.2298583984375	2866.9436224154174
2.2329163551330566	2615.3991929141284
2.235969066619873	2682.5729404495255
2.2390167713165283	2184.182248742202
2.2420592308044434	1800.1931355287757
2.2450966835021973	1621.4813778520179
2.248128890991211	1243.4020901987244
2.2511560916900635	986.4649568281225
2.254178285598755	844.667005629403
2.257194995880127	720.7217610511134
2.260206699371338	718.153453008047
2.2632133960723877	765.6534112208151
2.266214609146118	861.0371175450714
2.2692108154296875	1075.153537131429
2.2722020149230957	1393.5495541951257
2.2751877307891846	1466.3813928972443
2.278168201446533	1412.700861357383
2.2811436653137207	1365.101631059536
2.284113883972168	1085.474705546035
2.287078857421875	909.434839806738
2.290038824081421	844.5596678108687
2.2929933071136475	728.9558235733688
2.295942783355713	689.5971725356503
2.298887014389038	757.2141154470047
2.301826238632202	900.2180613458256
2.304760217666626	1325.2336727029008
2.3076889514923096	3061.2989980619423
2.310612440109253	6167.568369821845
2.3135311603546143	6867.766405244914
2.3164443969726562	3585.742148371541
2.319352865219116	833.3972127794026
2.322256088256836	577.7305219351896
2.3251543045043945	917.2433928973703
2.328047275543213	969.4223431713394
2.330935478210449	873.0483516167249
2.3338186740875244	875.10736584298
2.3366971015930176	853.7714857843707
2.3395702838897705	788.9833978505418
2.3424389362335205	834.5252171946332
2.3453025817871094	796.0999034346187
2.348161458969116	756.5483918207634
2.351015567779541	966.8141538099752
2.353865146636963	1264.2882630917586
2.3567099571228027	1780.3013361835772
2.3595502376556396	2864.1402861960146
2.3623859882354736	3781.2311775786775
2.3652172088623047	3509.8386709931483
2.368043899536133	2261.8864234067105
2.370866537094116	1019.064217049938
2.3736846446990967	704.6947133538862
2.3764986991882324	1408.6003667252187
2.3793084621429443	2226.817289714284
2.3821144104003906	2368.9548823189725
2.384916305541992	2457.6441082093997
2.387714147567749	3113.4969272040325
2.3905084133148193	3480.0290013966796
2.393299102783203	3159.170993377968
2.3960859775543213	3086.2470658499715
2.398869514465332	3958.2683469413423
2.4016497135162354	4998.402635112579
2.4044265747070312	5329.022838606835
2.407200336456299	5543.561175004811
2.409970998764038	7857.432203545711
2.4127390384674072	10903.707414135893
2.415503978729248	9849.136479504079
2.418266534805298	7172.933176081564
2.4210267066955566	6921.683297434122
2.4237842559814453	6441.6538003120795
2.426539897918701	6194.911708515925
2.429293394088745	9096.513904145317
2.4320452213287354	11589.479273506682
2.4347951412200928	11009.777566291887
2.4375438690185547	13167.251188953376
2.440291166305542	18131.29689653141
2.443037271499634	18956.662797737197
2.445782423019409	16314.441924630853
2.4485268592834473	15031.27674294791
2.451270818710327	16144.527055773984
2.454014539718628	19257.906241340726
2.4567582607269287	23254.16364378785
2.4595019817352295	26099.425655056744
2.4622461795806885	29048.329039883065
2.4649908542633057	33471.952024599595
2.4677364826202393	33235.377665149106
2.4704833030700684	28536.49274050519
2.473231554031372	26099.20577041002
2.4759814739227295	27386.345433405346
2.4787333011627197	27851.197091348462
2.481487512588501	27194.856967064028
