#wavelength	surface flux
0.6450077295303345	31483.931526671495
0.6472567915916443	50489.19671822818
0.6494921445846558	67980.0580981436
0.6517150402069092	80916.12646298601
0.6539263725280762	94979.32658196319
0.6561272740364075	110540.38072613055
0.6583186388015747	127608.41729219888
0.6605015397071838	146107.79841982425
0.6626768708229065	165630.16165624777
0.6648455858230591	184672.71426319447
0.6670085787773132	193835.91017526187
0.6691668033599854	177090.57991849887
0.6713210344314575	172447.71355539825
0.6734722256660461	226584.86395538552
0.6756211519241333	292198.95415149094
0.6777685880661011	331290.27772179025
0.6799154281616211	360049.4745129845
0.6820623278617859	385454.4891099571
0.6842101216316223	408223.44220363366
0.6863595843315125	428013.66621530545
0.688511312007904	443683.8401049194
0.6906660795211792	453142.21228753706
0.6928245425224304	457635.6237844692
0.6949873566627502	462703.6370052039
0.6971551775932312	467162.9727735082
0.6993286609649658	465044.03323306196
0.7015084028244019	456661.76299346844
0.7036949396133423	444754.5434396367
0.7058889269828796	429836.54153706186
0.7080909013748169	411772.3711603977
0.710301399230957	390806.97236132744
0.712520956993103	367224.0192217986
0.7147500514984131	340038.0159764763
0.7169892191886902	310094.3510632728
0.7192389369010925	282489.2568321542
0.7214996814727783	257404.92701678476
0.723771870136261	231249.11628061888
0.7260559797286987	204919.54561692488
0.7283523678779602	180210.97830866618
0.7306615710258484	157104.67855170407
0.7329838871955872	135715.6884441393
0.7353196740150452	115871.73753596506
0.7376693487167358	97166.03456438279
0.7400332689285278	80047.38694133412
0.7424117922782898	64781.00516968049
0.7448052167892456	51420.461040648996
0.7472138404846191	39952.33846554426
0.7496379613876343	30319.373929878668
0.7520779371261597	22463.506622558307
0.7545340061187744	16266.49708700972
0.7570064663887024	11543.019184417848
0.7594954967498779	8035.052898212129
0.7620013952255249	5365.090101881404
0.7645244002342224	3176.3617625049337
0.7670646905899048	1817.8094217876203
0.7696225643157959	1979.6636920867122
0.7721980810165405	3918.6109999288246
0.7747915983200073	7204.183174154288
0.7774031162261963	10911.920904426928
0.7800329327583313	16099.681184044928
0.7826811671257019	25883.868143235733
0.7853479981422424	40195.66000485881
0.7880334854125977	57757.622574090165
0.7907378077507019	75112.42386125839
0.7934610247612	88150.57092748904
0.7962033748626709	118693.2451747345
0.7989648580551147	177624.41764178866
0.801745593547821	241854.509958176
0.8045456409454346	306607.0617340631
0.8073651194572449	379030.32419917884
0.8102040886878967	459006.1631378811
0.8130625486373901	549282.4552253269
0.8159406185150146	654600.4161782503
0.8188382983207703	776055.5474700824
0.8217556476593018	916921.8310160894
0.8246926665306091	1081587.8967376654
0.8276493549346924	1263134.443213922
0.8306257724761963	1454751.7052374016
0.8336219191551208	1663217.2294385454
0.8366377949714661	1893580.0575454123
0.8396733403205872	2146830.5802468364
0.8427285552024841	2425329.911572028
0.8458034992218018	2703734.590275879
0.8488980531692505	2822522.470419784
0.8520121574401855	2884228.617744355
0.8551458716392517	3390207.392847707
0.8582990765571594	4004504.9955850826
0.8614717125892639	4111367.104031984
0.8646637797355652	4147644.678314347
0.8678751587867737	4512218.508890447
0.8711057901382446	4956718.047707252
0.8743556141853333	5416029.866454081
0.87762451171875	5930166.149383655
0.8809124231338501	6351764.995994968
0.8842192888259888	6717053.002469474
0.8875449895858765	7063921.85380858
0.8908893465995789	6975538.169515465
0.894252359867096	6742770.897345005
0.8976338505744934	7796721.403420775
0.9010337591171265	9770326.440351853
0.9044519662857056	11381072.770698387
0.9078882932662964	12505754.424219908
0.9113426208496094	13312667.4301554
0.914814829826355	14021445.211202286
0.9183048605918884	14874790.567290224
0.9218124747276306	15513057.715154618
0.925337553024292	14216858.409408517
0.9288799166679382	11253110.429778492
0.9324395060539246	10069142.421496639
0.9360161423683167	11703773.922152584
0.9396095871925354	14126048.557825666
0.943219780921936	15432959.152680801
0.9468464851379395	15617667.661299802
0.9504896402359009	15829147.14761919
0.9541489481925964	15997460.796632735
0.9578243494033813	15936119.417717308
0.9615156054496765	16421090.460688515
0.9652225375175476	18052096.68783533
0.9689450263977051	20233064.46932
0.9726828336715698	22025171.107394848
0.9764357805252075	23666243.775051903
0.9802037477493286	25450927.812580373
0.983986496925354	27134845.06294696
0.9877838492393494	28393484.42469729
0.9915955662727356	28805642.24878041
0.9954215884208679	28058461.405481685
0.9992615580558777	25958775.983731776
1.0031154155731201	25078861.226706516
1.0069829225540161	26941734.865740098
1.0108637809753418	29841988.71629865
1.0147579908370972	32973421.056812726
1.018665075302124	36076172.94861477
1.022585153579712	38762186.45034365
1.0265177488327026	40916473.10709889
1.0304628610610962	43313116.87148157
1.0344202518463135	46352394.23308145
1.0383895635604858	49341163.17253233
1.0423706769943237	51796416.83605393
1.0463634729385376	53734901.7795774
1.0503677129745483	55063625.60425647
1.0543830394744873	56184057.9136705
1.058409333229065	57685566.974415585
1.0624464750289917	59724911.122911535
1.0664942264556885	62121858.611999504
1.0705522298812866	64642794.87031536
1.0746204853057861	67375848.99084081
1.0786986351013184	69975663.18615687
1.0827864408493042	71451037.91074619
1.086883783340454	69417485.39389694
1.0909905433654785	61797441.26059393
1.0951062440872192	50851275.401112124
1.0992310047149658	40558494.12186064
1.10336434841156	31855263.507677186
1.1075061559677124	24582435.40732868
1.1116561889648438	19191066.171129644
1.115814208984375	16714627.755939655
1.1199802160263062	17157417.719017133
1.124153733253479	19439181.569496714
1.1283347606658936	20530252.513571244
1.1325229406356812	17697517.11059359
1.1367181539535522	16215148.883386452
1.1409201622009277	18833470.481214147
1.145128846168518	21736084.181859978
1.1493438482284546	23166860.327314116
1.1535650491714478	22328714.15922245
1.1577922105789185	20974432.005461276
1.1620250940322876	20334892.168025665
1.1662636995315552	19443981.989844795
1.170507550239563	19504515.648735285
1.174756646156311	20577467.913346916
1.1790107488632202	23415417.41147903
1.1832695007324219	29646950.371404137
1.1875330209732056	36573383.183807634
1.191800832748413	42735180.30722177
1.1960728168487549	48787219.44359538
1.2003488540649414	54230606.11859425
1.2046287059783936	59513671.58481422
1.2089121341705322	64509132.57524871
1.2131990194320679	69086414.82137427
1.2174891233444214	73730071.68174106
1.2217823266983032	77938288.48302819
1.2260783910751343	82049518.85451047
1.230377197265625	85841770.11853391
1.2346785068511963	87688518.85323536
1.238982081413269	84592998.11130308
1.2432878017425537	78655901.98541509
1.2475954294204712	74764279.85713978
1.2519049644470215	72256496.15652737
1.256216049194336	80276567.8793222
1.2605286836624146	95382724.86140786
1.2648425102233887	102645369.93388963
1.2691574096679688	104318032.89162475
1.2734732627868652	104163199.39539383
1.2777899503707886	103148925.33259632
1.2821072340011597	100566788.83178005
1.2864248752593994	95936726.30559191
1.2907428741455078	92037899.64188644
1.2950609922409058	90160108.45673482
1.2993791103363037	88403326.58631916
1.303696870803833	86230666.01956207
1.3080145120620728	83397357.06229228
1.3123314380645752	78352801.19172853
1.3166478872299194	72706685.91142835
1.3209635019302368	66532760.14846546
1.3252781629562378	55051730.78062476
1.3295916318893433	37047243.60433927
1.3339040279388428	18897537.88609321
1.3382149934768677	8083720.513914723
1.3425244092941284	4330819.755177481
1.3468321561813354	3092430.2267182413
1.3511382341384888	2350898.4762241743
1.3554422855377197	1860138.8928459827
1.3597444295883179	1833856.9708560999
1.3640443086624146	2290258.4931197716
1.3683418035507202	2692409.9121560254
1.3726370334625244	3069965.2804454453
1.3769296407699585	3705458.693610903
1.381219506263733	3775083.6919352016
1.3855066299438477	3338412.551275569
1.3897908926010132	3117971.9707040316
1.3940720558166504	2939727.207225249
1.3983501195907593	2853999.1083170436
1.4026249647140503	3003190.7426290987
1.4068963527679443	3007753.524564592
1.4111642837524414	2844964.585069198
1.4154287576675415	2835032.222289126
1.419689416885376	2840526.4997695223
1.4239463806152344	2930851.973700492
1.4281994104385376	3407541.7283552564
1.4324485063552856	3920154.1828817627
1.436693549156189	4194549.178605358
1.440934419631958	4504904.590889184
1.4451709985733032	5085288.107044453
1.449403166770935	6256862.634946911
1.453631043434143	7595878.677215943
1.4578542709350586	8546774.960275935
1.4620729684829712	9003182.615090247
1.4662868976593018	9037409.347293861
1.4704961776733398	9120860.394677712
1.4747005701065063	9720770.718822073
1.4788999557495117	10583536.063967666
1.4830944538116455	11200708.831402557
1.4872838258743286	11793384.340823587
1.491468071937561	12655876.722071217
1.4956470727920532	13754335.009906882
1.4998208284378052	15011207.854142575
1.5039892196655273	16388792.84185428
1.5081522464752197	17882688.08993235
1.5123097896575928	19531715.394042388
1.5164618492126465	21087221.57068582
1.5206083059310913	22899363.84375314
1.5247491598129272	25003882.47463866
1.5288842916488647	26963027.14148605
1.5330137014389038	29106820.318850577
1.5371372699737549	31166349.04538293
1.541254997253418	32903458.524098027
1.545366883277893	35033495.895052716
1.5494728088378906	37006546.42168534
1.5535727739334106	38177779.668432556
1.5576666593551636	39611699.193355665
1.561754584312439	42345306.03408849
1.5658363103866577	45499301.61794624
1.5699119567871094	47393931.500420325
1.5739814043045044	48330798.17718495
1.5780447721481323	49358508.11046428
1.582101821899414	50341193.586156756
1.5861525535583496	50676293.44091848
1.5901970863342285	50106374.27804894
1.5942351818084717	49117425.07184146
1.5982669591903687	47876169.09103661
1.6022924184799194	45715767.47638651
1.606311559677124	42967181.03305336
1.6103241443634033	40330098.58187139
1.6143304109573364	37457785.86992446
1.6183301210403442	34700802.37787007
1.6223233938217163	33300377.0299575
1.6263102293014526	33078678.932476144
1.6302905082702637	33413656.146960575
1.634264349937439	34942186.228900634
1.638231635093689	37713461.68382145
1.6421923637390137	39205849.93827231
1.646146535873413	38323737.30978688
1.6500942707061768	37935101.28122296
1.6540353298187256	36989161.597096555
1.6579699516296387	35597538.36829613
1.661897897720337	33724963.539544575
1.6658192873001099	23462670.6613269
1.6697341203689575	14861592.69305611
1.6736423969268799	20151584.923262935
1.677544116973877	27295706.915222663
1.6814392805099487	28168500.034623608
1.6853278875350952	26292099.86666603
1.6892099380493164	24000303.5949621
1.6930854320526123	21583555.44912146
1.696954369544983	19337598.92249009
1.7008168697357178	17915398.796438377
1.7046726942062378	17941209.379777137
1.708522081375122	19346219.400110263
1.712364912033081	20499261.37195397
1.7162011861801147	21068234.063840333
1.7200311422348022	21535280.111668084
1.723854422569275	20825226.675202623
1.7276713848114014	19645012.769084368
1.731481909751892	18771768.090508644
1.7352858781814575	17963820.076382212
1.7390835285186768	17576113.834796343
1.7428747415542603	17429512.171065543
1.7466596364974976	17042827.25943232
1.7504380941390991	16256372.37033909
1.7542102336883545	14718958.239074793
1.7579760551452637	13269705.4884859
1.7617355585098267	12635875.266778374
1.7654887437820435	11795157.64180628
1.7692357301712036	10555619.535473429
1.7729763984680176	9506405.962887608
1.776710867881775	8867813.06137698
1.7804391384124756	8532043.087989481
1.7841613292694092	7810336.160108409
1.7878772020339966	7137264.093772641
1.7915871143341064	6549556.528522865
1.7952908277511597	6124945.541230317
1.7989884614944458	6071135.620998805
1.8026801347732544	5401394.448657092
1.806365728378296	4976000.14754861
1.8100452423095703	5298541.730117394
1.8137187957763672	5667543.965928138
1.817386507987976	5370498.035180919
1.8210482597351074	5296606.816760129
1.8247040510177612	5980173.248204652
1.828354001045227	5651197.780866241
1.8319982290267944	4821997.141575165
1.8356364965438843	4445238.627824037
1.8392690420150757	4419619.051460185
1.8428958654403687	4807499.202224404
1.8465168476104736	4820758.483936473
1.8501322269439697	4652058.231358751
1.8537418842315674	4519393.133099079
1.8573459386825562	3887231.96434171
1.860944390296936	3284593.3615312525
1.864537239074707	3092713.482361213
1.8681244850158691	3072046.789847913
1.871706247329712	3387174.517935579
1.8752825260162354	4332214.339522461
1.8788533210754395	5770984.902449311
1.8824186325073242	6869085.945770176
1.8859784603118896	7102418.689892578
1.8895330429077148	7095502.445799743
1.8930821418762207	7822298.624049133
1.8966259956359863	8469377.438110858
1.9001644849777222	7808602.665590877
1.9036977291107178	7170230.279142458
1.9072256088256836	7558621.886209334
1.9107483625411987	7541668.433808525
1.9142658710479736	7096258.316167187
1.9177782535552979	7244487.593883536
1.9212853908538818	6973040.18690949
1.9247875213623047	6267782.89953248
1.9282845258712769	5688272.420403711
1.9317764043807983	5138175.004154402
1.9352631568908691	4711649.266312847
1.9387450218200684	4261545.222603194
1.942221760749817	4437302.088168971
1.9456936120986938	5031386.67534666
1.9491604566574097	5359667.649152261
1.952622413635254	5382094.6400998775
1.956079363822937	5161709.919019155
1.959531545639038	5284172.842918673
1.962978720664978	5686498.870414598
1.966421127319336	6290803.171000495
1.9698586463928223	6735354.704264729
1.9732913970947266	6644906.300447041
1.9767193794250488	6838209.4415670475
1.9801424741744995	7239388.8273203345
1.9835609197616577	7787861.766500026
1.9869745969772339	8312245.934744094
1.990383505821228	8322596.118282832
1.9937876462936401	9004969.472882278
1.9971871376037598	9868216.37619958
2.000581979751587	10347504.342104109
2.003972291946411	10965237.37293638
2.007357597351074	11023302.757253742
2.0107386112213135	11414204.77945337
2.0141148567199707	12274182.869615156
2.017486572265625	12451205.362542618
2.0208535194396973	13425926.613933662
2.0242159366607666	14756429.458576852
2.027573823928833	14658726.907797601
2.0309269428253174	14904604.434393985
2.034275770187378	16216301.011243764
2.0376198291778564	16967432.46180846
2.040959596633911	17057366.782681815
2.044294595718384	17786584.544317823
2.0476250648498535	18953780.33575381
2.0509510040283203	19171638.842239205
2.054272413253784	19303130.8554328
2.057589530944824	20529508.12922641
2.0609018802642822	21146541.28362059
2.0642096996307373	21064846.781468883
2.0675129890441895	21518446.41485791
2.0708119869232178	21822172.12974296
2.074106216430664	21798393.66475294
2.0773961544036865	21890302.288681053
2.080681324005127	22160674.58018036
2.0839622020721436	22371460.782361083
2.087238311767578	22513858.881710913
2.090510129928589	22714819.279161982
2.0937774181365967	22721956.631676704
2.0970399379730225	22565130.18072933
2.1002981662750244	22277266.794076
2.1035518646240234	21912550.11961629
2.1068007946014404	21604874.277759302
2.1100454330444336	21383787.07447626
2.1132853031158447	21382284.474628523
2.116520881652832	21095014.177841596
2.1197516918182373	20669843.13737433
2.1229779720306396	20611878.219543356
2.12619948387146	20467790.63380641
2.1294167041778564	20088246.245311394
2.132629156112671	19861119.47385808
2.1358368396759033	19588992.91016844
2.139039993286133	18869459.310952652
2.1422386169433594	17759871.84335809
2.145432472229004	16751197.004296891
2.1486217975616455	16356411.531172475
2.151806354522705	16258607.670539122
2.1549863815307617	16079981.93466273
2.1581614017486572	15659732.9102693
2.16133189201355	15019497.12283976
2.1644976139068604	14489835.110897752
2.167658567428589	13976098.742688907
2.1708147525787354	13506426.744576545
2.173966407775879	13012252.604857545
2.1771130561828613	12368632.564263824
2.1802549362182617	11809118.457857024
2.183391809463501	11134015.902632153
2.1865241527557373	10282029.916854283
2.1896514892578125	9290745.826192966
2.1927738189697266	8011936.093356011
2.1958916187286377	6331376.935958617
2.1990041732788086	4518081.430097714
2.2021119594573975	3334044.1923624948
2.2052149772644043	3047330.4711819333
2.208312749862671	3408351.5352257825
2.2114057540893555	4093083.3169491733
2.214493751525879	4761421.304352507
2.217576742172241	5168968.285582635
2.2206547260284424	5288099.252344091
2.2237277030944824	5156306.605685783
2.2267956733703613	4765979.112709156
2.2298583984375	4385896.500568622
2.2329163551330566	4178597.585072476
2.235969066619873	4016916.069505091
2.2390167713165283	3764625.8020576253
2.2420592308044434	3439184.532755354
2.2450966835021973	3163552.6735598957
2.248128890991211	2999257.201931351
2.2511560916900635	2921338.8190912744
2.254178285598755	2882391.7195846904
2.257194995880127	2868314.144879406
2.260206699371338	2853249.5450659203
2.2632133960723877	2876902.4727933304
2.266214609146118	2905747.9661187464
2.2692108154296875	2881363.9667882994
2.2722020149230957	2858501.063161329
2.2751877307891846	2813570.844991776
2.278168201446533	2749058.16204126
2.2811436653137207	2606139.0937139695
2.284113883972168	2360626.5433995607
2.287078857421875	2177374.8257966256
2.290038824081421	2011124.4651957168
2.2929933071136475	1878508.522633068
2.295942783355713	1928967.556192084
2.298887014389038	2173850.552940404
2.301826238632202	2470883.525571774
2.304760217666626	2888908.9158597146
2.3076889514923096	3705150.3075113804
2.310612440109253	4630662.615542386
2.3135311603546143	4686495.074221305
2.3164443969726562	3289805.0401260685
2.319352865219116	1867983.6460488304
2.322256088256836	1542423.1845619932
2.3251543045043945	1557469.3522786684
2.328047275543213	1564452.5818491376
2.330935478210449	1665630.0112859441
2.3338186740875244	1777992.61699162
2.3366971015930176	1861904.195972809
2.3395702838897705	1923557.6021773869
2.3424389362335205	1932002.8442129693
2.3453025817871094	1871750.106716983
2.348161458969116	1867507.064631177
2.351015567779541	1990291.8675206366
2.353865146636963	2161198.3576816595
2.3567099571228027	2344536.3293780377
2.3595502376556396	2647246.452666427
2.3623859882354736	3010942.986887495
2.3652172088623047	3188928.5562081276
2.368043899536133	2854562.7019891953
2.370866537094116	2014829.3850316703
2.3736846446990967	1595966.0309505747
2.3764986991882324	1736292.8270275956
2.3793084621429443	1763630.4663159475
2.3821144104003906	1694420.14026861
2.384916305541992	1902615.407727268
2.387714147567749	2366830.0254200697
2.3905084133148193	2596619.2017699783
2.393299102783203	2592837.0709903054
2.3960859775543213	2719476.48340699
2.398869514465332	3016441.1511397925
2.4016497135162354	3300711.6337060747
2.4044265747070312	3478223.2269524457
2.407200336456299	3503170.6839860333
2.409970998764038	3634461.573368673
2.4127390384674072	3928674.7411470213
2.415503978729248	3848516.079679451
2.418266534805298	3633203.015113592
2.4210267066955566	3688302.2688317886
2.4237842559814453	3564981.9074789686
2.426539897918701	3386030.2124083703
2.429293394088745	3667296.8626225963
2.4320452213287354	4018184.2792047244
2.4347951412200928	3882318.287454864
2.4375438690185547	3957467.783444228
2.440291166305542	4383018.253662768
2.443037271499634	4335707.598461174
2.445782423019409	4088549.9655421255
2.4485268592834473	4077735.5650024833
2.451270818710327	4040053.9987387764
2.454014539718628	4072485.301545155
2.4567582607269287	4465694.0736088725
2.4595019817352295	4607106.784712764
2.4622461795806885	4746881.09797442
2.4649908542633057	5059071.212281147
2.4677364826202393	4643477.555581314
2.4704833030700684	4074881.0304578366
2.473231554031372	3900668.91277944
2.4759814739227295	4014341.94245736
2.4787333011627197	4204983.308572678
2.481487512588501	4283211.041045839
