#wavelength	surface flux
0.6450077295303345	40641.82570112755
0.6472567915916443	65272.914827295994
0.6494921445846558	88175.99750974015
0.6517150402069092	105374.8865497572
0.6539263725280762	124154.06936397325
0.6561272740364075	145005.6788994164
0.6583186388015747	167968.05972439397
0.6605015397071838	192805.92754149306
0.6626768708229065	218626.00719288172
0.6648455858230591	242401.1309956974
0.6670085787773132	248860.28669073264
0.6691668033599854	216436.91401141527
0.6713210344314575	203959.1235569991
0.6734722256660461	281207.93652854883
0.6756211519241333	379933.64839735423
0.6777685880661011	440317.621811163
0.6799154281616211	483056.8866673554
0.6820623278617859	520214.94757972856
0.6842101216316223	553256.241138011
0.6863595843315125	581357.0691001834
0.688511312007904	601940.668538448
0.6906660795211792	609939.4269545199
0.6928245425224304	609667.5346290455
0.6949873566627502	616870.2031889602
0.6971551775932312	628555.0389014117
0.6993286609649658	627965.2260615759
0.7015084028244019	615937.5471753997
0.7036949396133423	599295.0041016353
0.7058889269828796	578193.3772643147
0.7080909013748169	553067.8605863103
0.710301399230957	524720.0429896169
0.712520956993103	492835.56069648894
0.7147500514984131	454366.7779156568
0.7169892191886902	411242.9976272175
0.7192389369010925	375015.2696267631
0.7214996814727783	344622.3453787624
0.723771870136261	311029.2537818622
0.7260559797286987	276432.8912059357
0.7283523678779602	245136.52683669326
0.7306615710258484	216369.83931825444
0.7329838871955872	189750.72489485837
0.7353196740150452	164987.50112952816
0.7376693487167358	140780.98614982687
0.7400332689285278	117961.2776915742
0.7424117922782898	97242.4690252899
0.7448052167892456	78815.62355817268
0.7472138404846191	62553.59831345932
0.7496379613876343	48283.02086884071
0.7520779371261597	36092.09673766953
0.7545340061187744	26016.971984021788
0.7570064663887024	17957.480869938005
0.7594954967498779	11719.680819941592
0.7620013952255249	6983.986062178751
0.7645244002342224	3511.655712137649
0.7670646905899048	1643.2487108460164
0.7696225643157959	1824.7351557648183
0.7721980810165405	4450.632469801394
0.7747915983200073	9503.131486628226
0.7774031162261963	15715.295342232605
0.7800329327583313	24445.29545153395
0.7826811671257019	40477.33183325528
0.7853479981422424	63202.52364327633
0.7880334854125977	89999.46211206152
0.7907378077507019	115561.87643639036
0.7934610247612	133544.5852175913
0.7962033748626709	175564.77161902172
0.7989648580551147	257024.88189102593
0.801745593547821	343820.9451556326
0.8045456409454346	428486.85088818264
0.8073651194572449	519562.19988513057
0.8102040886878967	615792.5583283695
0.8130625486373901	724278.9767465206
0.8159406185150146	854687.645514622
0.8188382983207703	1006838.2565462542
0.8217556476593018	1186291.1448815772
0.8246926665306091	1400991.4447389173
0.8276493549346924	1637442.4403801523
0.8306257724761963	1884547.4153444
0.8336219191551208	2153102.7972762897
0.8366377949714661	2449149.1708873943
0.8396733403205872	2776535.8630787134
0.8427285552024841	3141393.529644274
0.8458034992218018	3509075.2505631354
0.8488980531692505	3657922.617899781
0.8520121574401855	3724181.055724258
0.8551458716392517	4394992.232784975
0.8582990765571594	5169219.430098977
0.8614717125892639	5120062.19265825
0.8646637797355652	4928558.045975449
0.8678751587867737	5255168.105112831
0.8711057901382446	5694157.265230153
0.8743556141853333	6164566.111513472
0.87762451171875	6732665.871595984
0.8809124231338501	7177007.638714777
0.8842192888259888	7596904.007133335
0.8875449895858765	7991279.071219916
0.8908893465995789	7797844.620677352
0.894252359867096	7474569.883561921
0.8976338505744934	8788662.61418665
0.9010337591171265	11330810.652235717
0.9044519662857056	13562419.08213868
0.9078882932662964	15138622.225998472
0.9113426208496094	16147847.784516389
0.914814829826355	16925162.090838015
0.9183048605918884	17892021.37957973
0.9218124747276306	18432393.521051858
0.925337553024292	16305628.210658288
0.9288799166679382	12354816.6118219
0.9324395060539246	10715404.293122426
0.9360161423683167	11992179.763867335
0.9396095871925354	14146033.994533047
0.943219780921936	15731137.128756234
0.9468464851379395	16358652.194476135
0.9504896402359009	16658902.570796905
0.9541489481925964	16702117.55570018
0.9578243494033813	16400529.498240337
0.9615156054496765	16627602.070873445
0.9652225375175476	18034642.167494506
0.9689450263977051	19908479.3733082
0.9726828336715698	21331875.296114977
0.9764357805252075	22693537.220592268
0.9802037477493286	24266314.551744588
0.983986496925354	25799674.568252895
0.9877838492393494	27201102.42131436
0.9915955662727356	27848905.217927806
0.9954215884208679	27129667.483363293
0.9992615580558777	24447276.930821065
1.0031154155731201	22628384.84035318
1.0069829225540161	23954659.83392606
1.0108637809753418	26907502.355748296
1.0147579908370972	30831826.164991908
1.018665075302124	35280960.160108164
1.022585153579712	39170500.69775097
1.0265177488327026	42137674.660539456
1.0304628610610962	45616116.64420597
1.0344202518463135	50268017.90490289
1.0383895635604858	54699088.99944149
1.0423706769943237	57815657.30696579
1.0463634729385376	59590785.586306766
1.0503677129745483	60243051.33888959
1.0543830394744873	60860219.37884294
1.058409333229065	62386328.151089504
1.0624464750289917	64973610.33292885
1.0664942264556885	68212212.97324005
1.0705522298812866	71648685.45507428
1.0746204853057861	75580726.82312708
1.0786986351013184	79254265.52564877
1.0827864408493042	80745495.50036393
1.086883783340454	76135847.00344959
1.0909905433654785	63513016.21118569
1.0951062440872192	48790886.78371468
1.0992310047149658	38073675.74413815
1.10336434841156	30394391.86955893
1.1075061559677124	23909081.026094202
1.1116561889648438	19033730.20565584
1.115814208984375	16539808.077367775
1.1199802160263062	16228314.977051249
1.124153733253479	17483619.272409584
1.1283347606658936	18161636.847813763
1.1325229406356812	15635160.284424914
1.1367181539535522	14051272.499047808
1.1409201622009277	16128256.141388025
1.145128846168518	18696689.064079672
1.1493438482284546	19908814.546119664
1.1535650491714478	19398326.201181684
1.1577922105789185	18807298.96301398
1.1620250940322876	18467492.25253773
1.1662636995315552	17652968.800043203
1.170507550239563	17838392.28080586
1.174756646156311	18669518.86675941
1.1790107488632202	20615415.545618035
1.1832695007324219	25444701.828926295
1.1875330209732056	31208187.11425605
1.191800832748413	36943035.20607113
1.1960728168487549	42852117.13702482
1.2003488540649414	48238080.95520416
1.2046287059783936	54033466.97232947
1.2089121341705322	59770231.39626735
1.2131990194320679	65022442.906224154
1.2174891233444214	70515825.5553491
1.2217823266983032	75934818.22084342
1.2260783910751343	81880053.73250976
1.230377197265625	87740760.55877592
1.2346785068511963	91654745.72066261
1.238982081413269	90569109.77380548
1.2432878017425537	86470599.9073066
1.2475954294204712	84512552.55494772
1.2519049644470215	82987361.93286787
1.256216049194336	91218626.35834493
1.2605286836624146	105035890.79305004
1.2648425102233887	109106530.00027266
1.2691574096679688	108394047.62923189
1.2734732627868652	107080745.34751146
1.2777899503707886	105670523.72899851
1.2821072340011597	102652195.91464739
1.2864248752593994	96499211.90153514
1.2907428741455078	91648902.69022307
1.2950609922409058	90314013.84745136
1.2993791103363037	88538187.18833591
1.303696870803833	85159689.17395547
1.3080145120620728	80637433.689004
1.3123314380645752	74249487.80760671
1.3166478872299194	68074967.25131568
1.3209635019302368	62451393.47194874
1.3252781629562378	52741390.74400215
1.3295916318893433	35821493.31256596
1.3339040279388428	18160256.971239097
1.3382149934768677	8351579.15167064
1.3425244092941284	5106522.353997494
1.3468321561813354	3755014.211354614
1.3511382341384888	2883245.4791964386
1.3554422855377197	2363084.868000214
1.3597444295883179	2331871.2018739395
1.3640443086624146	2780063.762814537
1.3683418035507202	3107668.4595425148
1.3726370334625244	3250661.2515681
1.3769296407699585	3640619.7035837094
1.381219506263733	3771229.592770752
1.3855066299438477	3624514.0698510255
1.3897908926010132	3598801.278958533
1.3940720558166504	3465581.315808244
1.3983501195907593	3314599.747918815
1.4026249647140503	3325230.2505920073
1.4068963527679443	3195481.236074404
1.4111642837524414	3047645.7621934754
1.4154287576675415	3148702.38164411
1.419689416885376	3137028.2154144556
1.4239463806152344	3084692.8317176336
1.4281994104385376	3405361.6680865637
1.4324485063552856	3879310.2943652347
1.436693549156189	4221513.982278902
1.440934419631958	4500098.162719635
1.4451709985733032	4933877.066408765
1.449403166770935	5984378.374595246
1.453631043434143	7324319.657100146
1.4578542709350586	8203023.675722585
1.4620729684829712	8496821.891395729
1.4662868976593018	8487025.513507016
1.4704961776733398	8509050.17110463
1.4747005701065063	8970600.901943147
1.4788999557495117	9722818.212000335
1.4830944538116455	10259357.677169297
1.4872838258743286	10844266.723259643
1.491468071937561	11568810.348425025
1.4956470727920532	12331733.598239768
1.4998208284378052	13233325.168172779
1.5039892196655273	14268270.844360683
1.5081522464752197	15673793.930186702
1.5123097896575928	17357493.040230397
1.5164618492126465	18532377.584835093
1.5206083059310913	19545578.719813727
1.5247491598129272	20854418.191392925
1.5288842916488647	22269437.304189935
1.5330137014389038	23921927.072418917
1.5371372699737549	25328459.047710955
1.541254997253418	26541061.50118304
1.545366883277893	28401084.95449609
1.5494728088378906	30054886.262382083
1.5535727739334106	30542850.23141721
1.5576666593551636	31213305.766951144
1.561754584312439	33903754.799629234
1.5658363103866577	37621625.41646959
1.5699119567871094	39842091.491699256
1.5739814043045044	40819728.17460814
1.5780447721481323	41793782.34093293
1.582101821899414	42870357.19518408
1.5861525535583496	43642435.37755458
1.5901970863342285	43504504.408779755
1.5942351818084717	42978529.50167755
1.5982669591903687	42174937.91627684
1.6022924184799194	40087853.14711357
1.606311559677124	37448800.143238224
1.6103241443634033	35494630.67785131
1.6143304109573364	33349833.46699405
1.6183301210403442	31194214.36372847
1.6223233938217163	31045624.48372217
1.6263102293014526	32398710.605865773
1.6302905082702637	33769892.01755249
1.634264349937439	36064604.8460532
1.638231635093689	39488217.009804755
1.6421923637390137	40669814.4641197
1.646146535873413	38569688.124152526
1.6500942707061768	37854078.1578847
1.6540353298187256	36802031.40329882
1.6579699516296387	34551476.89278208
1.661897897720337	33054579.11512433
1.6658192873001099	23447631.722661085
1.6697341203689575	13872872.70204149
1.6736423969268799	18154026.474486344
1.677544116973877	25176399.131899755
1.6814392805099487	25919483.106738605
1.6853278875350952	23802267.615026917
1.6892099380493164	21193695.082306203
1.6930854320526123	18336799.864254404
1.696954369544983	15814214.807551786
1.7008168697357178	14465254.557788152
1.7046726942062378	14714629.58447738
1.708522081375122	16272809.469939057
1.712364912033081	17385048.88823859
1.7162011861801147	17793871.27340183
1.7200311422348022	18218062.33759191
1.723854422569275	17518036.516321566
1.7276713848114014	16168416.088802313
1.731481909751892	15075305.065900916
1.7352858781814575	14536300.685825035
1.7390835285186768	14991054.665974937
1.7428747415542603	15703905.875877315
1.7466596364974976	15841237.790675156
1.7504380941390991	15354084.80293822
1.7542102336883545	14161819.737265121
1.7579760551452637	12930924.084833786
1.7617355585098267	12302031.887058478
1.7654887437820435	11535521.652585892
1.7692357301712036	10357876.604506686
1.7729763984680176	9454307.103603695
1.776710867881775	9280064.64018171
1.7804391384124756	9392965.25632459
1.7841613292694092	8785031.246733667
1.7878772020339966	7955978.826909364
1.7915871143341064	7121761.739314203
1.7952908277511597	6731222.926791682
1.7989884614944458	6896204.68924523
1.8026801347732544	6371557.560738634
1.806365728378296	6018709.636367513
1.8100452423095703	6345160.4522697665
1.8137187957763672	6774923.236319122
1.817386507987976	6445199.393694649
1.8210482597351074	6198306.923603007
1.8247040510177612	6907665.968909195
1.828354001045227	6838790.9132181
1.8319982290267944	6091917.311802749
1.8356364965438843	5599767.023537533
1.8392690420150757	5542519.808658466
1.8428958654403687	5820460.204063959
1.8465168476104736	5677768.931158494
1.8501322269439697	5492279.40978421
1.8537418842315674	5366363.39520136
1.8573459386825562	4625337.451486807
1.860944390296936	3942764.075764029
1.864537239074707	3835629.3015718637
1.8681244850158691	3948560.849457335
1.871706247329712	4339933.753191702
1.8752825260162354	5196979.236875812
1.8788533210754395	6491799.669009111
1.8824186325073242	7687331.1661973605
1.8859784603118896	8164454.639224697
1.8895330429077148	8206010.500110533
1.8930821418762207	8693408.267393034
1.8966259956359863	9280255.432729686
1.9001644849777222	8980240.622615093
1.9036977291107178	8564481.456248524
1.9072256088256836	8994882.158282917
1.9107483625411987	9107641.564261831
1.9142658710479736	8776104.153903829
1.9177782535552979	8932553.28061652
1.9212853908538818	8697159.352009272
1.9247875213623047	8095479.180562775
1.9282845258712769	7506150.318133907
1.9317764043807983	6811610.398865095
1.9352631568908691	6165584.808194153
1.9387450218200684	5513844.357680837
1.942221760749817	5678959.298402825
1.9456936120986938	6406898.696377403
1.9491604566574097	6821067.146412329
1.952622413635254	6792365.740136974
1.956079363822937	6457681.83881755
1.959531545639038	6583986.452000793
1.962978720664978	6980826.026261407
1.966421127319336	7500567.322423489
1.9698586463928223	8033904.408896929
1.9732913970947266	8024193.28688294
1.9767193794250488	8100939.573148382
1.9801424741744995	8351640.583289856
1.9835609197616577	8713026.063067257
1.9869745969772339	9175975.810485948
1.990383505821228	9404544.327812994
1.9937876462936401	10223370.84343065
1.9971871376037598	10940631.578521887
2.000581979751587	11323965.116869055
2.003972291946411	11860419.262461271
2.007357597351074	11882628.777972944
2.0107386112213135	12331944.780673873
2.0141148567199707	13223548.603163183
2.017486572265625	13472545.027550051
2.0208535194396973	14544374.452446364
2.0242159366607666	15981680.590607058
2.027573823928833	15854422.378505766
2.0309269428253174	15981336.243106326
2.034275770187378	17338156.454439998
2.0376198291778564	18172097.376311988
2.040959596633911	18228063.5787973
2.044294595718384	19006583.54500036
2.0476250648498535	20375159.46346783
2.0509510040283203	20623727.465121526
2.054272413253784	20638144.374462973
2.057589530944824	22053006.205639504
2.0609018802642822	22759601.771360498
2.0642096996307373	22602950.71838179
2.0675129890441895	23211382.47968975
2.0708119869232178	23551056.08875672
2.074106216430664	23470103.030401908
2.0773961544036865	23550088.282944348
2.080681324005127	23744109.76275502
2.0839622020721436	23839576.526703965
2.087238311767578	23971039.687336206
2.090510129928589	24304272.28891479
2.0937774181365967	24370727.933393758
2.0970399379730225	24144438.00742763
2.1002981662750244	23733739.092345517
2.1035518646240234	23272081.593745876
2.1068007946014404	22784468.115635622
2.1100454330444336	22323005.344874207
2.1132853031158447	22295307.119163096
2.116520881652832	21929647.742878493
2.1197516918182373	21379329.72018405
2.1229779720306396	21386612.605375517
2.12619948387146	21247908.185266126
2.1294167041778564	20751714.506308362
2.132629156112671	20516687.09205835
2.1358368396759033	20194346.867571894
2.139039993286133	19034880.957875267
2.1422386169433594	17290350.695800673
2.145432472229004	15834628.868911766
2.1486217975616455	15378125.995097505
2.151806354522705	15348989.156138288
2.1549863815307617	15107780.697889103
2.1581614017486572	14585539.25228416
2.16133189201355	13827081.906756407
2.1644976139068604	13092561.962270519
2.167658567428589	12336742.813436504
2.1708147525787354	11804879.087422786
2.173966407775879	11296374.484106597
2.1771130561828613	10506467.317988016
2.1802549362182617	9821833.509497462
2.183391809463501	9054427.781790327
2.1865241527557373	8100632.792824623
2.1896514892578125	7075225.068646391
2.1927738189697266	5893872.351482656
2.1958916187286377	4453086.4260778045
2.1990041732788086	2979731.8389163455
2.2021119594573975	2024763.0767339147
2.2052149772644043	1662843.2855491538
2.208312749862671	1767612.5684547147
2.2114057540893555	2267589.745800987
2.214493751525879	2918606.012704915
2.217576742172241	3400005.0754956626
2.2206547260284424	3579891.8823849624
2.2237277030944824	3499950.1446868046
2.2267956733703613	3234839.1895609107
2.2298583984375	2962446.4697114243
2.2329163551330566	2790257.3016709047
2.235969066619873	2647048.2961465004
2.2390167713165283	2444033.7331870813
2.2420592308044434	2204684.0871627666
2.2450966835021973	1988858.5559627842
2.248128890991211	1860430.08077792
2.2511560916900635	1800130.845505447
2.254178285598755	1763418.8986527568
2.257194995880127	1751518.6813811082
2.260206699371338	1747191.0642416943
2.2632133960723877	1767672.9962671825
2.266214609146118	1762760.9983333575
2.2692108154296875	1727565.3814082607
2.2722020149230957	1712083.2681554488
2.2751877307891846	1683124.712238345
2.278168201446533	1620564.7376241765
2.2811436653137207	1494908.396084744
2.284113883972168	1317155.3588532303
2.287078857421875	1171423.3035208986
2.290038824081421	1051749.8674632
2.2929933071136475	969124.4651496378
2.295942783355713	998779.0862228384
2.298887014389038	1152929.5262216313
2.301826238632202	1336973.440589976
2.304760217666626	1597017.7696487778
2.3076889514923096	2124233.9759140518
2.310612440109253	2737785.03146777
2.3135311603546143	2840692.247400444
2.3164443969726562	2058552.5172512294
2.319352865219116	1179985.8767515859
2.322256088256836	893596.1157618603
2.3251543045043945	821115.8335216228
2.328047275543213	799399.0573608689
2.330935478210449	883499.6521664959
2.3338186740875244	989116.6701305644
2.3366971015930176	1080345.0105095785
2.3395702838897705	1149776.366936883
2.3424389362335205	1156368.1218535067
2.3453025817871094	1098747.8292179238
2.348161458969116	1080428.967256418
2.351015567779541	1156562.3801812346
2.353865146636963	1273740.3069763603
2.3567099571228027	1397745.2032099026
2.3595502376556396	1549170.884372379
2.3623859882354736	1730806.58511302
2.3652172088623047	1903433.0446456631
2.368043899536133	1835465.3911044283
2.370866537094116	1364155.711201915
2.3736846446990967	1040027.4603189504
2.3764986991882324	1060110.143958755
2.3793084621429443	1019719.5611613846
2.3821144104003906	940388.7476422276
2.384916305541992	1079551.3215025163
2.387714147567749	1409556.1314424963
2.3905084133148193	1574076.7785408683
2.393299102783203	1575840.5036976014
2.3960859775543213	1680410.7755538856
2.398869514465332	1870896.0070423856
2.4016497135162354	2067707.5320114386
2.4044265747070312	2297271.2631477867
2.407200336456299	2425662.89763663
2.409970998764038	2482180.904612061
2.4127390384674072	2612542.991191314
2.415503978729248	2629049.4191035884
2.418266534805298	2549142.3428637586
2.4210267066955566	2486126.686519923
2.4237842559814453	2288376.1184201958
2.426539897918701	2159419.4908033595
2.429293394088745	2346512.2704226323
2.4320452213287354	2558741.811072103
2.4347951412200928	2521940.3935880484
2.4375438690185547	2637684.72265278
2.440291166305542	2947156.0685465457
2.443037271499634	2985889.428000528
2.445782423019409	2900441.6897340696
2.4485268592834473	2901887.9116380857
2.451270818710327	2923494.7381917327
2.454014539718628	3025530.0329268584
2.4567582607269287	3321650.065077013
2.4595019817352295	3505267.128181625
2.4622461795806885	3696345.0869685295
2.4649908542633057	3966947.690790506
2.4677364826202393	3734964.532737119
2.4704833030700684	3367268.682343055
2.473231554031372	3291976.2118979497
2.4759814739227295	3466561.969511648
2.4787333011627197	3650316.178044239
2.481487512588501	3677010.6632929817
