#wavelength	surface flux
0.6450077295303345	12901.566979920035
0.6472567915916443	20602.695907676756
0.6494921445846558	27547.467075306595
0.6517150402069092	32561.419777506908
0.6539263725280762	38019.65844620295
0.6561272740364075	44090.402389668874
0.6583186388015747	50791.93086158891
0.6605015397071838	58125.25776536559
0.6626768708229065	66005.02280651857
0.6648455858230591	74110.43198414649
0.6670085787773132	79644.62160685557
0.6691668033599854	76713.85988797009
0.6713210344314575	77438.73357935698
0.6734722256660461	97380.41342191192
0.6756211519241333	120241.2213380123
0.6777685880661011	134031.9077749984
0.6799154281616211	144904.2061894428
0.6820623278617859	154773.4380511056
0.6842101216316223	163663.06766355192
0.6863595843315125	171343.40071060954
0.688511312007904	177280.80000434213
0.6906660795211792	180728.43831127344
0.6928245425224304	182248.27135253453
0.6949873566627502	183430.44717268538
0.6971551775932312	183741.26850932516
0.6993286609649658	181630.14193064143
0.7015084028244019	177291.43743384175
0.7036949396133423	171551.97274196477
0.7058889269828796	164653.1521771392
0.7080909013748169	156572.65682044014
0.710301399230957	147436.78162604762
0.712520956993103	137427.88486672947
0.7147500514984131	126343.62422485885
0.7169892191886902	114489.43608115478
0.7192389369010925	103485.50998380406
0.7214996814727783	93518.7132452603
0.723771870136261	83511.64416523105
0.7260559797286987	73717.44983002932
0.7283523678779602	64698.19089573077
0.7306615710258484	56460.30851332406
0.7329838871955872	49024.41290199126
0.7353196740150452	42274.60921254461
0.7376693487167358	36043.643817531025
0.7400332689285278	30436.710126396883
0.7424117922782898	25490.688277548255
0.7448052167892456	21176.696859908425
0.7472138404846191	17458.984953923802
0.7496379613876343	14295.543838296871
0.7520779371261597	11632.499710000486
0.7545340061187744	9392.388052135477
0.7570064663887024	7484.1621691240925
0.7594954967498779	5812.328926655496
0.7620013952255249	4235.733609094962
0.7645244002342224	2641.6979741211776
0.7670646905899048	1531.896962591605
0.7696225643157959	1664.4415012445374
0.7721980810165405	3233.246810111665
0.7747915983200073	5639.107935209511
0.7774031162261963	7945.216832608602
0.7800329327583313	10558.815434123113
0.7826811671257019	15032.665297060434
0.7853479981422424	21098.495674798018
0.7880334854125977	27972.990892765098
0.7907378077507019	34555.02653614926
0.7934610247612	39414.1523947465
0.7962033748626709	50716.696024304634
0.7989648580551147	72565.95316159696
0.801745593547821	96515.45596864226
0.8045456409454346	121059.99052033565
0.8073651194572449	149160.87191484368
0.8102040886878967	181005.6212363455
0.8130625486373901	217726.76191135123
0.8159406185150146	261994.06704004816
0.8188382983207703	314546.1355140133
0.8217556476593018	374081.52294833487
0.8246926665306091	442951.5063174914
0.8276493549346924	521515.4917529757
0.8306257724761963	607086.575747237
0.8336219191551208	701925.648913676
0.8366377949714661	808250.0287975154
0.8396733403205872	926414.4028025861
0.8427285552024841	1057177.9574356962
0.8458034992218018	1190921.2367289248
0.8488980531692505	1261685.4879164665
0.8520121574401855	1312344.6417356767
0.8551458716392517	1555520.453063853
0.8582990765571594	1874284.7140931564
0.8614717125892639	2049772.7705362875
0.8646637797355652	2207165.2084969366
0.8678751587867737	2447014.390738551
0.8711057901382446	2711214.595542683
0.8743556141853333	2979884.760820538
0.87762451171875	3251112.1922962447
0.8809124231338501	3467874.4987978274
0.8842192888259888	3637504.4491464314
0.8875449895858765	3788057.308458816
0.8908893465995789	3734553.3901955183
0.894252359867096	3624619.224094844
0.8976338505744934	4190866.3062623367
0.9010337591171265	5239599.862509306
0.9044519662857056	6096948.212394193
0.9078882932662964	6695241.344845834
0.9113426208496094	7113505.25415269
0.914814829826355	7470929.694666466
0.9183048605918884	7902661.702695724
0.9218124747276306	8241703.721409571
0.925337553024292	7592757.0778158
0.9288799166679382	5990851.902549214
0.9324395060539246	5278245.628226352
0.9360161423683167	6192246.808108428
0.9396095871925354	7581465.686869677
0.943219780921936	8217315.053275442
0.9468464851379395	8194769.804868302
0.9504896402359009	8308182.84402535
0.9541489481925964	8450640.790024728
0.9578243494033813	8475621.67677128
0.9615156054496765	8810971.27292089
0.9652225375175476	9766097.048568014
0.9689450263977051	11016867.796381643
0.9726828336715698	12021080.895174582
0.9764357805252075	12881028.822734794
0.9802037477493286	13797934.771888368
0.983986496925354	14697138.43422742
0.9877838492393494	15624930.240524387
0.9915955662727356	16517494.911715508
0.9954215884208679	17026419.80473613
0.9992615580558777	17080985.615380615
1.0031154155731201	17604055.971486773
1.0069829225540161	18907537.701981027
1.0108637809753418	20333667.34932329
1.0147579908370972	21654314.435087197
1.018665075302124	22850445.047678225
1.022585153579712	23919314.335315287
1.0265177488327026	24861835.527275145
1.0304628610610962	25808526.69779469
1.0344202518463135	26923919.557308882
1.0383895635604858	28118943.639197137
1.0423706769943237	29224691.54641305
1.0463634729385376	30196422.060999338
1.0503677129745483	31083373.256955337
1.0543830394744873	31937429.12568013
1.058409333229065	32707003.19432695
1.0624464750289917	33432511.25020541
1.0664942264556885	34122810.980573334
1.0705522298812866	34693080.479582526
1.0746204853057861	35280510.98859576
1.0786986351013184	35894068.74689524
1.0827864408493042	36138040.34035253
1.086883783340454	35085410.48739262
1.0909905433654785	31897361.64195021
1.0951062440872192	27165506.001361508
1.0992310047149658	22191255.609123234
1.10336434841156	17494388.99254104
1.1075061559677124	13316164.471037867
1.1116561889648438	10057474.718625888
1.115814208984375	8447860.895589242
1.1199802160263062	8639846.71059839
1.124153733253479	10019056.680856882
1.1283347606658936	10839738.20579945
1.1325229406356812	9634963.838642772
1.1367181539535522	9503438.329649197
1.1409201622009277	11390895.633261777
1.145128846168518	12433080.917351773
1.1493438482284546	12470844.301036928
1.1535650491714478	11743941.922393845
1.1577922105789185	11000881.244156633
1.1620250940322876	10957501.578296531
1.1662636995315552	11124592.678644333
1.170507550239563	11878225.963135406
1.174756646156311	13105427.858436635
1.1790107488632202	15257319.651660325
1.1832695007324219	18986254.864211373
1.1875330209732056	22752331.230431683
1.191800832748413	25960432.583656047
1.1960728168487549	29060333.44518491
1.2003488540649414	31779901.825291917
1.2046287059783936	34250402.09239554
1.2089121341705322	36459221.02358947
1.2131990194320679	38403177.81243006
1.2174891233444214	40367969.3148185
1.2217823266983032	42137994.19772255
1.2260783910751343	43778856.97869661
1.230377197265625	45315597.45278694
1.2346785068511963	46236551.63485724
1.238982081413269	45719041.02015932
1.2432878017425537	44306203.88297559
1.2475954294204712	43005424.37507346
1.2519049644470215	41932405.18540763
1.256216049194336	44720080.33212168
1.2605286836624146	50000062.71533341
1.2648425102233887	52588266.57066213
1.2691574096679688	53197757.53948768
1.2734732627868652	53077848.66390689
1.2777899503707886	52517606.99545284
1.2821072340011597	51265424.043696776
1.2864248752593994	49286607.67806895
1.2907428741455078	47516321.128385894
1.2950609922409058	46382288.68566759
1.2993791103363037	45338508.076571114
1.303696870803833	44198091.303981416
1.3080145120620728	42833703.40661717
1.3123314380645752	40514648.23110262
1.3166478872299194	37990336.73648539
1.3209635019302368	35245138.97851456
1.3252781629562378	29789847.908284888
1.3295916318893433	20736933.131741513
1.3339040279388428	11025881.799991969
1.3382149934768677	4730449.663566218
1.3425244092941284	2274061.8930018633
1.3468321561813354	1485871.826314416
1.3511382341384888	1085520.578899734
1.3554422855377197	829763.4826923279
1.3597444295883179	817741.2379779576
1.3640443086624146	1065763.4243689834
1.3683418035507202	1319716.3673865804
1.3726370334625244	1617734.880154302
1.3769296407699585	2031847.285334649
1.381219506263733	1983326.0117601494
1.3855066299438477	1599876.0215786288
1.3897908926010132	1437119.502376885
1.3940720558166504	1375892.9006732712
1.3983501195907593	1388916.7950831424
1.4026249647140503	1526566.5765399726
1.4068963527679443	1570105.5300455047
1.4111642837524414	1496403.7474012855
1.4154287576675415	1489276.8649655378
1.419689416885376	1510338.5654259096
1.4239463806152344	1626341.281381611
1.4281994104385376	1983259.981879914
1.4324485063552856	2307163.573785346
1.436693549156189	2467629.1413312694
1.440934419631958	2702050.3640146884
1.4451709985733032	3140998.0145791834
1.449403166770935	3914402.735155358
1.453631043434143	4775261.005929879
1.4578542709350586	5487315.7156026345
1.4620729684829712	5853687.322880171
1.4662868976593018	5793696.817727115
1.4704961776733398	5731023.815780762
1.4747005701065063	6059048.828220789
1.4788999557495117	6593307.846346455
1.4830944538116455	7002614.715764123
1.4872838258743286	7411005.6724662
1.491468071937561	8040822.572175431
1.4956470727920532	8906364.386760268
1.4998208284378052	9911103.320247501
1.5039892196655273	10872278.076307926
1.5081522464752197	11621641.842528805
1.5123097896575928	12366490.697954886
1.5164618492126465	13414143.496749816
1.5206083059310913	14942244.7374571
1.5247491598129272	16514572.765260369
1.5288842916488647	17816076.248272795
1.5330137014389038	19156792.58281714
1.5371372699737549	20452653.699363917
1.541254997253418	21560943.392547496
1.545366883277893	22799220.75816687
1.5494728088378906	23965131.360628337
1.5535727739334106	24842949.202981904
1.5576666593551636	25944336.16995648
1.561754584312439	27639602.090784576
1.5658363103866577	29419603.318149343
1.5699119567871094	30485338.28630456
1.5739814043045044	31007867.111218136
1.5780447721481323	31569618.09721225
1.582101821899414	32091231.67251426
1.5861525535583496	32202413.4829433
1.5901970863342285	31775882.793341268
1.5942351818084717	31053339.791449502
1.5982669591903687	30150637.16548484
1.6022924184799194	28751053.920155853
1.606311559677124	26962153.189136896
1.6103241443634033	25088594.949019708
1.6143304109573364	23026177.618113566
1.6183301210403442	21019010.256950498
1.6223233938217163	19680932.45069734
1.6263102293014526	18983684.645138137
1.6302905082702637	18754371.99270703
1.634264349937439	19371223.016427837
1.638231635093689	20803630.333299596
1.6421923637390137	21727685.8600141
1.646146535873413	21513072.065478608
1.6500942707061768	21538459.45954469
1.6540353298187256	21311659.983727578
1.6579699516296387	20942639.937589806
1.661897897720337	19817840.074809134
1.6658192873001099	13603567.338658063
1.6697341203689575	8881371.253976809
1.6736423969268799	12249469.94400587
1.677544116973877	16269720.430383073
1.6814392805099487	16620065.175875131
1.6853278875350952	15525414.18147301
1.6892099380493164	14265682.45700759
1.6930854320526123	12930445.995652227
1.696954369544983	11687046.593034282
1.7008168697357178	10854877.148350243
1.7046726942062378	10824343.274287455
1.708522081375122	11705041.986671787
1.712364912033081	12581236.011573985
1.7162011861801147	13213909.52075375
1.7200311422348022	13702597.078166865
1.723854422569275	13336815.62799131
1.7276713848114014	12717895.310364624
1.731481909751892	12325583.191860883
1.7352858781814575	11900388.202850277
1.7390835285186768	11608683.239714164
1.7428747415542603	11442965.946506532
1.7466596364974976	11124456.052375372
1.7504380941390991	10488382.469266508
1.7542102336883545	9396688.910750357
1.7579760551452637	8399582.149511144
1.7617355585098267	7893772.400094337
1.7654887437820435	7244898.887642505
1.7692357301712036	6435224.234616012
1.7729763984680176	5785202.43874094
1.776710867881775	5325211.751095376
1.7804391384124756	5031920.481162761
1.7841613292694092	4543622.715827213
1.7878772020339966	4120672.193183201
1.7915871143341064	3772517.270774731
1.7952908277511597	3480602.8957939367
1.7989884614944458	3385647.7223334736
1.8026801347732544	2935432.662098633
1.806365728378296	2655731.2784246374
1.8100452423095703	2829378.369101788
1.8137187957763672	2979433.517338001
1.817386507987976	2794810.6455000415
1.8210482597351074	2819711.5826585507
1.8247040510177612	3246611.4650147543
1.828354001045227	2998275.159707299
1.8319982290267944	2481792.9820362213
1.8356364965438843	2274291.4743504976
1.8392690420150757	2258864.9687109673
1.8428958654403687	2590733.625495728
1.8465168476104736	2717533.162698276
1.8501322269439697	2617408.9024146087
1.8537418842315674	2505581.187032272
1.8573459386825562	2152076.345034008
1.860944390296936	1822831.9751083825
1.864537239074707	1648916.5777502188
1.8681244850158691	1528714.5484856782
1.871706247329712	1683294.4716261006
1.8752825260162354	2370888.1367172585
1.8788533210754395	3409072.449632235
1.8824186325073242	4094057.879364603
1.8859784603118896	4132299.437115957
1.8895330429077148	4071196.101346549
1.8930821418762207	4539551.9779003365
1.8966259956359863	4879670.45879323
1.9001644849777222	4270081.185395425
1.9036977291107178	3712302.1065530027
1.9072256088256836	3861119.379885948
1.9107483625411987	3808591.0028861393
1.9142658710479736	3499238.032333976
1.9177782535552979	3534187.206941769
1.9212853908538818	3376894.9453287804
1.9247875213623047	2986577.660311749
1.9282845258712769	2697244.839806895
1.9317764043807983	2468349.208359063
1.9352631568908691	2294753.8624989344
1.9387450218200684	2088712.76895001
1.942221760749817	2217268.2378117302
1.9456936120986938	2541499.721642046
1.9491604566574097	2717622.133721396
1.952622413635254	2744313.308101243
1.956079363822937	2665261.5377555164
1.959531545639038	2800214.7575191157
1.962978720664978	3084064.837222966
1.966421127319336	3454488.255549326
1.9698586463928223	3658357.9842558457
1.9732913970947266	3608697.70811823
1.9767193794250488	3844294.6101971725
1.9801424741744995	4166280.952505898
1.9835609197616577	4576750.8129694965
1.9869745969772339	4954297.298866605
1.990383505821228	4910029.111715061
1.9937876462936401	5309484.118909437
1.9971871376037598	5913601.195755997
2.000581979751587	6216426.904284451
2.003972291946411	6563279.407475494
2.007357597351074	6625777.815421545
2.0107386112213135	6866927.898063761
2.0141148567199707	7307284.177009847
2.017486572265625	7288127.754464813
2.0208535194396973	7694838.220134507
2.0242159366607666	8434166.49942823
2.027573823928833	8513642.728368342
2.0309269428253174	8678265.740786912
2.034275770187378	9323079.056499114
2.0376198291778564	9694600.31047673
2.040959596633911	9756044.823154876
2.044294595718384	10181003.18170237
2.0476250648498535	10801260.065148693
2.0509510040283203	10944347.097154927
2.054272413253784	11062439.51932095
2.057589530944824	11623369.639508834
2.0609018802642822	11943764.499468023
2.0642096996307373	11978916.546392988
2.0675129890441895	12183427.160781665
2.0708119869232178	12353494.08796463
2.074106216430664	12400022.770634798
2.0773961544036865	12453469.90270904
2.080681324005127	12576893.452593215
2.0839622020721436	12688638.49863414
2.087238311767578	12748846.70656112
2.090510129928589	12807944.594473004
2.0937774181365967	12792433.39654539
2.0970399379730225	12714173.59884424
2.1002981662750244	12580983.888976179
2.1035518646240234	12422053.980785424
2.1068007946014404	12284513.157990271
2.1100454330444336	12171691.76974453
2.1132853031158447	12139670.804262625
2.116520881652832	11999115.40051131
2.1197516918182373	11801456.740178809
2.1229779720306396	11731803.2692434
2.12619948387146	11636378.215554666
2.1294167041778564	11465349.296742562
2.132629156112671	11331721.284994897
2.1358368396759033	11170733.318726718
2.139039993286133	10872321.308754833
2.1422386169433594	10405663.782326572
2.145432472229004	9943160.762697197
2.1486217975616455	9724629.229393825
2.151806354522705	9628741.891150048
2.1549863815307617	9514177.515506597
2.1581614017486572	9289679.770095604
2.16133189201355	8933173.416216535
2.1644976139068604	8641845.248705925
2.167658567428589	8390483.775198502
2.1708147525787354	8138518.856560105
2.173966407775879	7878802.314658591
2.1771130561828613	7556498.014822378
2.1802549362182617	7259288.583823986
2.183391809463501	6917961.597838188
2.1865241527557373	6503416.569128891
2.1896514892578125	5964501.134037751
2.1927738189697266	5183203.731497182
2.1958916187286377	4134234.5878195204
2.1990041732788086	2987254.6793819927
2.2021119594573975	2248580.5462883865
2.2052149772644043	2169558.728811988
2.208312749862671	2535429.04964962
2.2114057540893555	2990628.2916654428
2.214493751525879	3321752.2958808974
2.217576742172241	3501673.6780092907
2.2206547260284424	3524930.9164836616
2.2237277030944824	3413743.1094921785
2.2267956733703613	3147279.038491782
2.2298583984375	2864144.2563374806
2.2329163551330566	2738494.3523458913
2.235969066619873	2672949.92986171
2.2390167713165283	2495436.2609030455
2.2420592308044434	2268071.2271685726
2.2450966835021973	2098682.4290244714
2.248128890991211	1978814.636778951
2.2511560916900635	1913591.3026355242
2.254178285598755	1867164.8715802378
2.257194995880127	1839203.1642323183
2.260206699371338	1830588.6585975273
2.2632133960723877	1845042.5747694026
2.266214609146118	1891194.4233594057
2.2692108154296875	1917451.5899854584
2.2722020149230957	1919978.549038477
2.2751877307891846	1880647.5428282612
2.278168201446533	1846346.9421646993
2.2811436653137207	1779248.1933092822
2.284113883972168	1621165.8762196095
2.287078857421875	1508819.9737630116
2.290038824081421	1410089.8618073375
2.2929933071136475	1325417.1290414745
2.295942783355713	1355124.266316672
2.298887014389038	1513114.5410890093
2.301826238632202	1725896.239233871
2.304760217666626	2023992.7954020326
2.3076889514923096	2596110.687549614
2.310612440109253	3265074.7087511984
2.3135311603546143	3266147.504334278
2.3164443969726562	2184231.8591125472
2.319352865219116	1165635.4368357765
2.322256088256836	1017809.1131370089
2.3251543045043945	1106936.12168096
2.328047275543213	1126196.289688392
2.330935478210449	1169855.2091702502
2.3338186740875244	1220770.361757435
2.3366971015930176	1248209.059644668
2.3395702838897705	1254717.2601906182
2.3424389362335205	1247647.076766619
2.3453025817871094	1214886.5091634032
2.348161458969116	1227128.1918272828
2.351015567779541	1330741.272764178
2.353865146636963	1463516.5083837714
2.3567099571228027	1611643.089783408
2.3595502376556396	1869694.0740614317
2.3623859882354736	2158435.15925795
2.3652172088623047	2236007.277462052
2.368043899536133	1896477.68203962
2.370866537094116	1256721.3475921685
2.3736846446990967	991631.4374661774
2.3764986991882324	1158192.2081547494
2.3793084621429443	1265595.624235223
2.3821144104003906	1266934.098891696
2.384916305541992	1408215.2424503444
2.387714147567749	1713992.7536516897
2.3905084133148193	1864530.3818744754
2.393299102783203	1843559.3915568376
2.3960859775543213	1909387.5067947474
2.398869514465332	2143576.672294413
2.4016497135162354	2365971.2259140857
2.4044265747070312	2435675.0505733113
2.407200336456299	2407428.724737705
2.409970998764038	2564590.017794153
2.4127390384674072	2856843.2944250493
2.415503978729248	2748168.905086236
2.418266534805298	2524294.087079264
2.4210267066955566	2633915.0977800335
2.4237842559814453	2625022.083740423
2.426539897918701	2498661.0466633225
2.429293394088745	2741846.2040607743
2.4320452213287354	3035110.036012464
2.4347951412200928	2879491.6243726253
2.4375438690185547	2914604.863925971
2.440291166305542	3286198.410433396
2.443037271499634	3254202.9588082293
2.445782423019409	3012037.138291248
2.4485268592834473	2976766.0142098237
2.451270818710327	2928538.2032999913
2.454014539718628	2945382.34307183
2.4567582607269287	3251081.147878947
2.4595019817352295	3327772.9930363623
2.4622461795806885	3398766.5857361583
2.4649908542633057	3627033.389366589
2.4677364826202393	3302863.8935283273
2.4704833030700684	2850020.998450221
2.473231554031372	2674491.0390303936
2.4759814739227295	2693160.358094582
2.4787333011627197	2811444.4679559073
