#wavelength	surface flux
0.6450077295303345	1003.9691766010002
0.6472567915916443	1612.3192655675098
0.6494921445846558	2183.2819697160685
0.6517150402069092	2619.2982080399865
0.6539263725280762	3101.409906379893
0.6561272740364075	3642.247848503361
0.6583186388015747	4250.486139075842
0.6605015397071838	4933.648009225146
0.6626768708229065	5682.509537488495
0.6648455858230591	6484.626486142819
0.6670085787773132	7152.6081513273775
0.6691668033599854	7225.5887536783475
0.6713210344314575	7553.242124878837
0.6734722256660461	9256.309161135996
0.6756211519241333	11111.840552716814
0.6777685880661011	12287.01033568089
0.6799154281616211	13269.976294980037
0.6820623278617859	14173.129680955597
0.6842101216316223	14983.387973710782
0.6863595843315125	15667.98915392753
0.688511312007904	16136.450978165061
0.6906660795211792	16153.303391546857
0.6928245425224304	15867.919724119984
0.6949873566627502	15958.803120991497
0.6971551775932312	16287.389642833785
0.6993286609649658	16151.374669270977
0.7015084028244019	15620.732714609478
0.7036949396133423	15063.021272814716
0.7058889269828796	14516.715433529482
0.7080909013748169	13896.071803750823
0.710301399230957	13167.276645847123
0.712520956993103	12317.683927405318
0.7147500514984131	11165.979818975422
0.7169892191886902	9742.650955520794
0.7192389369010925	8680.639923226381
0.7214996814727783	8035.521926943067
0.723771870136261	7291.819865735837
0.7260559797286987	6508.263089304918
0.7283523678779602	5911.274926041646
0.7306615710258484	5449.382154062971
0.7329838871955872	5110.873432514056
0.7353196740150452	4817.464760471218
0.7376693487167358	4441.536408075707
0.7400332689285278	4039.785607436527
0.7424117922782898	3652.4603107009066
0.7448052167892456	3282.8378418442016
0.7472138404846191	2925.831434955741
0.7496379613876343	2585.360920045142
0.7520779371261597	2282.5805288523634
0.7545340061187744	2019.1093247850472
0.7570064663887024	1766.0073486231565
0.7594954967498779	1469.6448171744082
0.7620013952255249	1084.1769078035436
0.7645244002342224	645.9872254763983
0.7670646905899048	349.95097001782034
0.7696225643157959	386.4526760645588
0.7721980810165405	813.5882009974563
0.7747915983200073	1486.6373445048412
0.7774031162261963	2083.8492631576255
0.7800329327583313	2595.8017486452122
0.7826811671257019	3361.2232258481868
0.7853479981422424	4352.968129667926
0.7880334854125977	5419.574555202754
0.7907378077507019	6412.736170476906
0.7934610247612	7087.168542753705
0.7962033748626709	8589.537662408326
0.7989648580551147	11460.55568904697
0.801745593547821	14418.79523077805
0.8045456409454346	17210.272630691168
0.8073651194572449	20010.347004449657
0.8102040886878967	22520.07094899245
0.8130625486373901	25288.70297753078
0.8159406185150146	29775.40220635175
0.8188382983207703	35956.69609338888
0.8217556476593018	42146.84196069318
0.8246926665306091	49401.550177367724
0.8276493549346924	58484.92324036002
0.8306257724761963	67934.04939759373
0.8336219191551208	78265.70228791208
0.8366377949714661	90262.28038594527
0.8396733403205872	104318.86812822164
0.8427285552024841	121092.45345715406
0.8458034992218018	139770.17397738507
0.8488980531692505	152385.51613544655
0.8520121574401855	162527.21558180195
0.8551458716392517	193518.20483268998
0.8582990765571594	233130.97515862325
0.8614717125892639	259717.9571629855
0.8646637797355652	286286.2976396311
0.8678751587867737	322651.9107993971
0.8711057901382446	364227.5383015636
0.8743556141853333	403000.7414358796
0.87762451171875	423553.118763994
0.8809124231338501	399400.0013724412
0.8842192888259888	348141.00855298206
0.8875449895858765	313676.81093383307
0.8908893465995789	286073.1948870535
0.894252359867096	270273.9795184889
0.8976338505744934	341982.9334279328
0.9010337591171265	512683.76742992725
0.9044519662857056	699284.54962955
0.9078882932662964	811981.5824567185
0.9113426208496094	836164.1824072845
0.914814829826355	827393.2172544308
0.9183048605918884	858352.6781404311
0.9218124747276306	890644.3498967631
0.925337553024292	725137.8696061725
0.9288799166679382	416944.2387319898
0.9324395060539246	260873.85105635
0.9360161423683167	301625.2223302188
0.9396095871925354	406188.5738961577
0.943219780921936	469001.84421721485
0.9468464851379395	471727.7566030632
0.9504896402359009	465404.84673298
0.9541489481925964	455130.8026382015
0.9578243494033813	435619.6997293993
0.9615156054496765	455486.96682108135
0.9652225375175476	556546.5935169889
0.9689450263977051	689615.1691384929
0.9726828336715698	771782.6504798493
0.9764357805252075	827347.7167961921
0.9802037477493286	886852.8871941353
0.983986496925354	925442.104561257
0.9877838492393494	990078.6846906139
0.9915955662727356	1134986.9152772187
0.9954215884208679	1355409.6298237115
0.9992615580558777	1650302.373977419
1.0031154155731201	2016448.6793146322
1.0069829225540161	2366693.322472914
1.0108637809753418	2644975.812827877
1.0147579908370972	2893139.7551569417
1.018665075302124	3123109.2987102154
1.022585153579712	3362723.145067168
1.0265177488327026	3650871.743711865
1.0304628610610962	3930056.4597555306
1.0344202518463135	4200291.795075778
1.0383895635604858	4541742.106763991
1.0423706769943237	4893374.10022357
1.0463634729385376	5159495.559703206
1.0503677129745483	5398657.061656384
1.0543830394744873	5670413.816253784
1.058409333229065	5884000.741592085
1.0624464750289917	6018052.4952512495
1.0664942264556885	6076788.331251977
1.0705522298812866	6062814.244210056
1.0746204853057861	6101509.326144656
1.0786986351013184	6141391.867702289
1.0827864408493042	5972920.341818538
1.086883783340454	5269377.056416702
1.0909905433654785	3961267.8171449006
1.0951062440872192	2642122.948755721
1.0992310047149658	1772439.4169092935
1.10336434841156	1216175.4510424465
1.1075061559677124	815409.827588522
1.1116561889648438	539417.3889880577
1.115814208984375	384780.55087652896
1.1199802160263062	338475.3445424409
1.124153733253479	351116.5076664077
1.1283347606658936	370716.6379688884
1.1325229406356812	331830.91762336995
1.1367181539535522	360567.3005911525
1.1409201622009277	487091.2347483444
1.145128846168518	515577.6847464991
1.1493438482284546	441402.163708391
1.1535650491714478	355196.5256337866
1.1577922105789185	313502.86517149257
1.1620250940322876	307267.3378497887
1.1662636995315552	339767.12585112656
1.170507550239563	474550.65015113645
1.174756646156311	675567.1673096678
1.1790107488632202	936193.7689691117
1.1832695007324219	1259890.3932272668
1.1875330209732056	1578492.492759015
1.191800832748413	1988034.9483105137
1.1960728168487549	2521365.8311206135
1.2003488540649414	3035862.000332569
1.2046287059783936	3559550.603661853
1.2089121341705322	4035492.384672868
1.2131990194320679	4431525.246080918
1.2174891233444214	4873850.880224643
1.2217823266983032	5367421.578050074
1.2260783910751343	5954040.384048378
1.230377197265625	6599240.166880432
1.2346785068511963	7190052.05165191
1.238982081413269	7692324.344766655
1.2432878017425537	8142615.640923431
1.2475954294204712	8527266.701303182
1.2519049644470215	8715706.876923826
1.256216049194336	9168524.030242844
1.2605286836624146	9732817.268997163
1.2648425102233887	9679880.188626561
1.2691574096679688	9200655.470690027
1.2734732627868652	8593884.866024977
1.2777899503707886	7976446.0526100155
1.2821072340011597	7238540.788094408
1.2864248752593994	6321328.916083933
1.2907428741455078	5631843.386876367
1.2950609922409058	5372916.8476257445
1.2993791103363037	5159698.797418931
1.303696870803833	4770927.207012414
1.3080145120620728	4338740.616256744
1.3123314380645752	3811208.264201352
1.3166478872299194	3405530.4439175325
1.3209635019302368	3242175.8508830606
1.3252781629562378	2783829.824503625
1.3295916318893433	1778653.6623529284
1.3339040279388428	783608.4529916573
1.3382149934768677	296619.29047209374
1.3425244092941284	138375.39200782642
1.3468321561813354	70170.55901119205
1.3511382341384888	39048.72748041747
1.3554422855377197	23237.608703536418
1.3597444295883179	19028.23889838003
1.3640443086624146	25481.42958604226
1.3683418035507202	32260.23702466322
1.3726370334625244	41339.719434322054
1.3769296407699585	55647.06481148339
1.381219506263733	54375.28789056935
1.3855066299438477	44485.85698410067
1.3897908926010132	44761.07224648579
1.3940720558166504	46052.07497475933
1.3983501195907593	45383.496152038075
1.4026249647140503	46879.15931397049
1.4068963527679443	47438.7590402923
1.4111642837524414	50536.31835036388
1.4154287576675415	57423.64428964428
1.419689416885376	58900.83767249042
1.4239463806152344	65074.053002685585
1.4281994104385376	91954.32692577907
1.4324485063552856	118295.21636260116
1.436693549156189	129865.39026649923
1.440934419631958	147041.8244462995
1.4451709985733032	185748.1049072244
1.449403166770935	262017.96513096336
1.453631043434143	345621.8905646153
1.4578542709350586	390404.89118913276
1.4620729684829712	387401.50217651617
1.4662868976593018	347233.9301042199
1.4704961776733398	287536.25295303896
1.4747005701065063	261031.60121466676
1.4788999557495117	291723.40712768905
1.4830944538116455	327590.7618810165
1.4872838258743286	349008.5351075625
1.491468071937561	367887.58376028197
1.4956470727920532	415229.97751814604
1.4998208284378052	500311.189488225
1.5039892196655273	547639.0557738694
1.5081522464752197	534474.7224812082
1.5123097896575928	514909.6419532451
1.5164618492126465	562915.7705764634
1.5206083059310913	723717.0735828932
1.5247491598129272	911686.5808621829
1.5288842916488647	1079661.4047253854
1.5330137014389038	1248134.4006247045
1.5371372699737549	1389489.3209005615
1.541254997253418	1518865.4491004467
1.545366883277893	1695118.9195838291
1.5494728088378906	1881324.0610959118
1.5535727739334106	2055596.328341001
1.5576666593551636	2359647.693782008
1.561754584312439	2915098.089823383
1.5658363103866577	3541830.494096364
1.5699119567871094	3870636.5229163975
1.5739814043045044	3971404.350963576
1.5780447721481323	4170098.366335014
1.582101821899414	4379813.746030999
1.5861525535583496	4386515.564609106
1.5901970863342285	4178878.686735748
1.5942351818084717	3878454.970632403
1.5982669591903687	3522323.5415699137
1.6022924184799194	3034863.064344833
1.606311559677124	2522617.55944447
1.6103241443634033	2112721.8261109395
1.6143304109573364	1678817.085293669
1.6183301210403442	1269740.2357042204
1.6223233938217163	1115128.8732850202
1.6263102293014526	1151452.7420850522
1.6302905082702637	1237475.6368542367
1.634264349937439	1424738.6232578224
1.638231635093689	1713165.6489073383
1.6421923637390137	1778601.3852506294
1.646146535873413	1484541.79408933
1.6500942707061768	1395982.1609017684
1.6540353298187256	1453660.9489601266
1.6579699516296387	1356823.45428663
1.661897897720337	1324439.1233601596
1.6658192873001099	897414.4467809297
1.6697341203689575	366429.83112080285
1.6736423969268799	418573.76318864897
1.677544116973877	594360.4750643567
1.6814392805099487	569079.1644212699
1.6853278875350952	500607.0643373247
1.6892099380493164	425109.6552610038
1.6930854320526123	320773.69934245903
1.696954369544983	238751.29359835497
1.7008168697357178	195075.50157357054
1.7046726942062378	209684.34151214396
1.708522081375122	302195.564951228
1.712364912033081	412130.62648168916
1.7162011861801147	529602.3833181289
1.7200311422348022	620820.1881870289
1.723854422569275	586195.926346697
1.7276713848114014	524814.8683144939
1.731481909751892	508754.20676313696
1.7352858781814575	531953.6718173301
1.7390835285186768	629300.5818305407
1.7428747415542603	747318.0192947342
1.7466596364974976	826785.1476253354
1.7504380941390991	829434.8854014043
1.7542102336883545	719871.0579968273
1.7579760551452637	591827.9760604426
1.7617355585098267	536302.2047279025
1.7654887437820435	510031.95607062674
1.7692357301712036	459486.47025754815
1.7729763984680176	404391.3054079954
1.776710867881775	418678.29106947925
1.7804391384124756	466070.1814714521
1.7841613292694092	430166.87879834825
1.7878772020339966	358529.632877556
1.7915871143341064	285667.68465848756
1.7952908277511597	254425.16462935635
1.7989884614944458	281154.4643021616
1.8026801347732544	245228.67350611484
1.806365728378296	209619.16914133308
1.8100452423095703	225644.78452050994
1.8137187957763672	233735.79329244964
1.817386507987976	212692.20149509553
1.8210482597351074	235730.4110942904
1.8247040510177612	292881.63365854416
1.828354001045227	241176.61413381394
1.8319982290267944	157399.61044757516
1.8356364965438843	124140.37806845887
1.8392690420150757	127342.44472726583
1.8428958654403687	185576.3684759484
1.8465168476104736	213504.62513470423
1.8501322269439697	201402.35077181828
1.8537418842315674	197680.54007893935
1.8573459386825562	168048.12758736525
1.860944390296936	129667.13093589222
1.864537239074707	104522.04786184334
1.8681244850158691	82293.63701336489
1.871706247329712	84349.37608790876
1.8752825260162354	147670.57744218432
1.8788533210754395	271394.3725877873
1.8824186325073242	357235.4548135607
1.8859784603118896	353156.2315232289
1.8895330429077148	334130.2029609821
1.8930821418762207	379747.0388264252
1.8966259956359863	408452.56195397425
1.9001644849777222	311131.82250789524
1.9036977291107178	229141.35374856836
1.9072256088256836	241335.90804907025
1.9107483625411987	227561.52986004762
1.9142658710479736	189649.49386743503
1.9177782535552979	194670.4323988049
1.9212853908538818	192397.2947420953
1.9247875213623047	162461.3849679775
1.9282845258712769	131282.8931305162
1.9317764043807983	110142.71962314149
1.9352631568908691	99297.89465072087
1.9387450218200684	90729.52099045411
1.942221760749817	105152.30769914866
1.9456936120986938	126123.02703969643
1.9491604566574097	127116.20921423622
1.952622413635254	121889.00106908736
1.956079363822937	131427.18073805512
1.959531545639038	158569.5041117997
1.962978720664978	176674.75107590595
1.966421127319336	188849.6782876994
1.9698586463928223	195819.2167104405
1.9732913970947266	205564.02478143858
1.9767193794250488	243407.16574365232
1.9801424741744995	259928.23813713426
1.9835609197616577	269408.32182820764
1.9869745969772339	312972.496789934
1.990383505821228	360019.2854335018
1.9937876462936401	440272.6063084873
1.9971871376037598	534540.6783749353
2.000581979751587	589045.5907761407
2.003972291946411	595424.7751874209
2.007357597351074	596708.9498961963
2.0107386112213135	623739.8636223999
2.0141148567199707	608682.2019872871
2.017486572265625	551921.4949905456
2.0208535194396973	596703.1483247299
2.0242159366607666	732642.4978907955
2.027573823928833	801675.3814575346
2.0309269428253174	863899.7130416863
2.034275770187378	972663.4751078163
2.0376198291778564	1026040.9763472002
2.040959596633911	1043029.2477199971
2.044294595718384	1169797.800810556
2.0476250648498535	1349248.5719795302
2.0509510040283203	1407716.2793681587
2.054272413253784	1452198.251115929
2.057589530944824	1597699.5591579764
2.0609018802642822	1702693.3500894145
2.0642096996307373	1764582.5704186
2.0675129890441895	1860006.4397197335
2.0708119869232178	1941704.75095435
2.074106216430664	2007784.8833957375
2.0773961544036865	2050804.3318982322
2.080681324005127	2090252.8716921802
2.0839622020721436	2142810.685545486
2.087238311767578	2189252.593248059
2.090510129928589	2240434.7967025856
2.0937774181365967	2245724.6287979954
2.0970399379730225	2197394.6125765652
2.1002981662750244	2126840.183041338
2.1035518646240234	2072625.2141104292
2.1068007946014404	2024873.8072096328
2.1100454330444336	1952721.9515581839
2.1132853031158447	1913000.0762912987
2.116520881652832	1844829.1005314111
2.1197516918182373	1754961.888733443
2.1229779720306396	1711402.8725073508
2.12619948387146	1667503.3063181683
2.1294167041778564	1618192.659044868
2.132629156112671	1588467.4368962313
2.1358368396759033	1543767.4634314352
2.139039993286133	1431560.6837195607
2.1422386169433594	1232374.9187326818
2.145432472229004	1041870.6667524374
2.1486217975616455	977343.2878120828
2.151806354522705	958215.1939507053
2.1549863815307617	900959.5296588242
2.1581614017486572	823258.9782847352
2.16133189201355	729536.2293389994
2.1644976139068604	651236.8744112947
2.167658567428589	587469.446977718
2.1708147525787354	551611.6521587177
2.173966407775879	545416.299154101
2.1771130561828613	517884.4085943793
2.1802549362182617	479425.29975349485
2.183391809463501	432903.36701596435
2.1865241527557373	383653.5857878728
2.1896514892578125	318351.8025339906
2.1927738189697266	219408.695433146
2.1958916187286377	126908.17822759911
2.1990041732788086	64030.1101253515
2.2021119594573975	34353.80894027359
2.2052149772644043	36101.589490826445
2.208312749862671	54525.94657861485
2.2114057540893555	76292.68500821172
2.214493751525879	93708.26903418817
2.217576742172241	104624.26921047764
2.2206547260284424	103270.29668464049
2.2237277030944824	92324.03206299375
2.2267956733703613	79607.3611894088
2.2298583984375	66309.82495357422
2.2329163551330566	60066.39114620121
2.235969066619873	58159.71371711229
2.2390167713165283	49229.35376579262
2.2420592308044434	40893.3739335664
2.2450966835021973	35845.674651840905
2.248128890991211	29582.951241404688
2.2511560916900635	25633.325940736664
2.254178285598755	23817.529762173996
2.257194995880127	23417.154016659013
2.260206699371338	24658.974026540407
2.2632133960723877	25886.162030197018
2.266214609146118	27341.653240590127
2.2692108154296875	28716.651684921966
2.2722020149230957	29695.7368237114
2.2751877307891846	28925.29507471205
2.278168201446533	28324.17045288185
2.2811436653137207	27229.303220904694
2.284113883972168	21959.460868380884
2.287078857421875	17961.868553937034
2.290038824081421	16524.25888840032
2.2929933071136475	15213.783041811503
2.295942783355713	15818.107206860166
2.298887014389038	18833.23435555552
2.301826238632202	22462.31136020329
2.304760217666626	29529.278975652524
2.3076889514923096	48830.16176917918
2.310612440109253	79192.2465855414
2.3135311603546143	87874.66238129324
2.3164443969726562	52935.47309706657
2.319352865219116	17554.64986188041
2.322256088256836	11055.723072210605
2.3251543045043945	13072.552049454003
2.328047275543213	13903.410976846797
2.330935478210449	15873.215659607275
2.3338186740875244	18706.05299435382
2.3366971015930176	20905.68980847663
2.3395702838897705	22143.281242376725
2.3424389362335205	22447.20488054348
2.3453025817871094	20316.16673978924
2.348161458969116	18992.301907560075
2.351015567779541	21357.70023305619
2.353865146636963	24723.694435246263
2.3567099571228027	29167.823971529975
2.3595502376556396	37138.40794701337
2.3623859882354736	45746.42179899914
2.3652172088623047	48317.41907072814
2.368043899536133	40227.94837291152
2.370866537094116	24211.844125098596
2.3736846446990967	16212.62747906829
2.3764986991882324	20332.849529627194
2.3793084621429443	23559.37269488727
2.3821144104003906	22674.451354397337
2.384916305541992	27314.587592428405
2.387714147567749	38647.79142541679
2.3905084133148193	43692.0088117087
2.393299102783203	41392.140933421055
2.3960859775543213	41992.70506791687
2.398869514465332	50462.198809133304
2.4016497135162354	63342.967876188624
2.4044265747070312	74597.3477505923
2.407200336456299	79903.25888092845
2.409970998764038	91961.51147569512
2.4127390384674072	108168.25488485496
2.415503978729248	101179.03788910527
2.418266534805298	84677.51346284676
2.4210267066955566	78849.21966395617
2.4237842559814453	70149.52434890959
2.426539897918701	67003.82969016804
2.429293394088745	85572.25233051761
2.4320452213287354	101873.20777673576
2.4347951412200928	101706.70619238312
2.4375438690185547	118638.29716460072
2.440291166305542	149325.6003029364
2.443037271499634	154723.46861046995
2.445782423019409	143616.51295371883
2.4485268592834473	140989.06377259095
2.451270818710327	146560.76021438878
2.454014539718628	159802.22029310776
2.4567582607269287	183020.97486060226
2.4595019817352295	202354.53611536566
2.4622461795806885	226311.79138566845
2.4649908542633057	255575.52296743236
2.4677364826202393	243728.73536342537
2.4704833030700684	211753.58303406835
2.473231554031372	201302.06684021896
2.4759814739227295	212750.41725249868
2.4787333011627197	223925.31919805577
2.481487512588501	227833.97731331945
