#wavelength	surface flux
0.6450077295303345	5813.343481799069
0.6472567915916443	9249.21262304841
0.6494921445846558	12280.529257847613
0.6517150402069092	14390.19892622183
0.6539263725280762	16661.52888496206
0.6561272740364075	19169.32881401845
0.6583186388015747	21917.09279856631
0.6605015397071838	24907.29286184281
0.6626768708229065	28110.87611414113
0.6648455858230591	31437.126021917244
0.6670085787773132	33935.35032683477
0.6691668033599854	33372.736093170904
0.6713210344314575	34076.48538244451
0.6734722256660461	41696.09219419977
0.6756211519241333	50178.76293659903
0.6777685880661011	55303.26543175578
0.6799154281616211	59455.70903010352
0.6820623278617859	63255.87453848703
0.6842101216316223	66680.21920041667
0.6863595843315125	69622.51946300936
0.688511312007904	71813.1792657344
0.6906660795211792	72915.32846692148
0.6928245425224304	73284.97540503227
0.6949873566627502	73656.66664522854
0.6971551775932312	73747.22233307597
0.6993286609649658	72889.20590779986
0.7015084028244019	71171.78531834632
0.7036949396133423	68941.14369394886
0.7058889269828796	66287.88115354143
0.7080909013748169	63191.4021533471
0.710301399230957	59694.59106472408
0.712520956993103	55857.91542045687
0.7147500514984131	51566.82378387168
0.7169892191886902	46928.500654011215
0.7192389369010925	42662.91882570505
0.7214996814727783	38856.59389147698
0.723771870136261	34994.19896425324
0.7260559797286987	31182.126155750877
0.7283523678779602	27695.09054263085
0.7306615710258484	24530.861897135295
0.7329838871955872	21689.869860394716
0.7353196740150452	19107.45974458797
0.7376693487167358	16697.075961132105
0.7400332689285278	14513.14040361288
0.7424117922782898	12576.966998163116
0.7448052167892456	10874.523086994484
0.7472138404846191	9389.821248504863
0.7496379613876343	8107.799120847743
0.7520779371261597	7005.524605699456
0.7545340061187744	6044.935849322024
0.7570064663887024	5174.957735991728
0.7594954967498779	4309.450666325673
0.7620013952255249	3285.516982101785
0.7645244002342224	2055.8597236837845
0.7670646905899048	1164.4504450204922
0.7696225643157959	1269.609919362504
0.7721980810165405	2521.6657444183925
0.7747915983200073	4365.008739616393
0.7774031162261963	5913.266980503379
0.7800329327583313	7356.14440398472
0.7826811671257019	9707.991786209885
0.7853479981422424	12775.937976400588
0.7880334854125977	16053.409871050868
0.7907378077507019	19104.29132903251
0.7934610247612	21290.52850693477
0.7962033748626709	26340.091802204202
0.7989648580551147	36113.152763590064
0.801745593547821	46747.87485028599
0.8045456409454346	57573.90501327892
0.8073651194572449	69907.02095545939
0.8102040886878967	83754.19066095934
0.8130625486373901	99622.38152136866
0.8159406185150146	118961.46462160812
0.8188382983207703	142132.29452796408
0.8217556476593018	167901.4025588606
0.8246926665306091	197300.58747029593
0.8276493549346924	230838.3237907898
0.8306257724761963	267159.665431811
0.8336219191551208	307326.56517462846
0.8366377949714661	352400.169808465
0.8396733403205872	402481.1919804818
0.8427285552024841	458117.3041075504
0.8458034992218018	516159.3245987345
0.8488980531692505	550632.6927835045
0.8520121574401855	577865.1735579005
0.8551458716392517	682175.9414212091
0.8582990765571594	821178.5230018434
0.8614717125892639	914478.778435989
0.8646637797355652	1001280.9262150862
0.8678751587867737	1110361.8737096058
0.8711057901382446	1226958.7751645413
0.8743556141853333	1344192.2072225779
0.87762451171875	1456528.345664786
0.8809124231338501	1539075.272353298
0.8842192888259888	1594704.2816958225
0.8875449895858765	1642790.618166445
0.8908893465995789	1615605.6952881417
0.894252359867096	1570295.9104841154
0.8976338505744934	1805804.1385398437
0.9010337591171265	2255268.820236218
0.9044519662857056	2637656.9175374797
0.9078882932662964	2900591.7803538847
0.9113426208496094	3070342.1669251723
0.914814829826355	3206348.438556273
0.9183048605918884	3377079.3152820906
0.9218124747276306	3509362.551303407
0.925337553024292	3197362.8815266085
0.9288799166679382	2448875.217163419
0.9324395060539246	2086297.0451907727
0.9360161423683167	2457443.4055982167
0.9396095871925354	3056660.477305335
0.943219780921936	3318076.1295097223
0.9468464851379395	3282550.9974674215
0.9504896402359009	3314952.925581062
0.9541489481925964	3362735.2016878403
0.9578243494033813	3360528.7822057395
0.9615156054496765	3501118.0060141035
0.9652225375175476	3920637.288373701
0.9689450263977051	4470687.174397305
0.9726828336715698	4894360.381533061
0.9764357805252075	5238353.990072694
0.9802037477493286	5610889.382496051
0.983986496925354	5986787.023262856
0.9877838492393494	6423516.863323866
0.9915955662727356	6926184.261552427
0.9954215884208679	7348081.258768304
0.9992615580558777	7662364.237885709
1.0031154155731201	8111041.908946993
1.0069829225540161	8710938.974418676
1.0108637809753418	9262294.39913271
1.0147579908370972	9737308.058719937
1.018665075302124	10156035.384379465
1.022585153579712	10541823.714914069
1.0265177488327026	10894731.003550129
1.0304628610610962	11230742.919362264
1.0344202518463135	11632706.262113664
1.0383895635604858	12109592.177668745
1.0423706769943237	12579140.159211973
1.0463634729385376	12999785.51141003
1.0503677129745483	13415229.435928447
1.0543830394744873	13831736.386989545
1.058409333229065	14157176.279096192
1.0624464750289917	14392589.024376687
1.0664942264556885	14562603.640877593
1.0705522298812866	14635448.521133313
1.0746204853057861	14698748.467150407
1.0786986351013184	14794613.707724141
1.0827864408493042	14764867.027792217
1.086883783340454	14253347.143159969
1.0909905433654785	12958054.806370461
1.0951062440872192	11088261.371160755
1.0992310047149658	9092119.576474132
1.10336434841156	7162737.50972271
1.1075061559677124	5430195.312444063
1.1116561889648438	4065004.278643707
1.115814208984375	3362463.2435567477
1.1199802160263062	3404083.5755031356
1.124153733253479	3941328.596123388
1.1283347606658936	4283715.969285247
1.1325229406356812	3867598.8002026663
1.1367181539535522	3955656.564827336
1.1409201622009277	4812393.291626772
1.145128846168518	5127656.99400266
1.1493438482284546	4986348.391072864
1.1535650491714478	4646056.487331035
1.1577922105789185	4370296.0777559625
1.1620250940322876	4433488.10385875
1.1662636995315552	4677402.651645112
1.170507550239563	5238248.446824213
1.174756646156311	6024883.49274469
1.1790107488632202	7118452.303815463
1.1832695007324219	8661366.34737422
1.1875330209732056	10135117.805289926
1.191800832748413	11429658.1541447
1.1960728168487549	12703406.573464762
1.2003488540649414	13816216.687432213
1.2046287059783936	14827023.151756471
1.2089121341705322	15722051.843570976
1.2131990194320679	16497056.990144705
1.2174891233444214	17295500.887948114
1.2217823266983032	18040163.841316257
1.2260783910751343	18752006.288832605
1.230377197265625	19446609.80983977
1.2346785068511963	19954827.59469413
1.238982081413269	20093449.135766856
1.2432878017425537	19995659.055494733
1.2475954294204712	19812369.66336649
1.2519049644470215	19571119.03227118
1.256216049194336	20425764.657809433
1.2605286836624146	21942045.287269205
1.2648425102233887	22595311.205111645
1.2691574096679688	22676781.931797523
1.2734732627868652	22540974.593589664
1.2777899503707886	22233085.466649342
1.2821072340011597	21649784.284939427
1.2864248752593994	20782691.825015187
1.2907428741455078	19990374.879954536
1.2950609922409058	19476284.66575135
1.2993791103363037	19031448.75179167
1.303696870803833	18539571.20501786
1.3080145120620728	17958161.51320068
1.3123314380645752	16988224.540051784
1.3166478872299194	15988697.239203665
1.3209635019302368	15013919.993685756
1.3252781629562378	12952582.373167034
1.3295916318893433	9263448.91109582
1.3339040279388428	5142759.8383092405
1.3382149934768677	2363813.819068626
1.3425244092941284	1177843.8286411078
1.3468321561813354	758478.3104737313
1.3511382341384888	545297.1146729687
1.3554422855377197	410120.99229035754
1.3597444295883179	396717.9370579234
1.3640443086624146	513808.3658780961
1.3683418035507202	641572.3354264759
1.3726370334625244	795642.1412023877
1.3769296407699585	998286.3999130945
1.381219506263733	961640.8062712342
1.3855066299438477	769795.8416277276
1.3897908926010132	702855.981668055
1.3940720558166504	686085.4090127939
1.3983501195907593	699809.459180833
1.4026249647140503	768364.7579431372
1.4068963527679443	792120.9806330123
1.4111642837524414	766794.8138928037
1.4154287576675415	773858.308481853
1.419689416885376	791929.5099541262
1.4239463806152344	864386.1420276737
1.4281994104385376	1062536.980480035
1.4324485063552856	1239137.699633006
1.436693549156189	1330902.282290357
1.440934419631958	1461989.4457204675
1.4451709985733032	1703617.7627174885
1.449403166770935	2121472.5662461254
1.453631043434143	2583339.452634618
1.4578542709350586	2962765.6969615007
1.4620729684829712	3137991.561214161
1.4662868976593018	3063279.6731930054
1.4704961776733398	2964353.451311654
1.4747005701065063	3070008.8352878746
1.4788999557495117	3314328.2805378265
1.4830944538116455	3514923.3729955014
1.4872838258743286	3712911.7722243466
1.491468071937561	4016018.184234498
1.4956470727920532	4457633.759086018
1.4998208284378052	5003224.903929814
1.5039892196655273	5491572.328280321
1.5081522464752197	5777868.0893389415
1.5123097896575928	6008863.537423208
1.5164618492126465	6487442.738435964
1.5206083059310913	7331430.7466428615
1.5247491598129272	8190641.522017031
1.5288842916488647	8873963.25489956
1.5330137014389038	9540031.857326625
1.5371372699737549	10163929.175506812
1.541254997253418	10709197.956138141
1.545366883277893	11312953.02886759
1.5494728088378906	11900017.246582773
1.5535727739334106	12398938.457407871
1.5576666593551636	13035998.364265068
1.561754584312439	13975625.187450709
1.5658363103866577	14961329.019041201
1.5699119567871094	15566279.141660621
1.5739814043045044	15867820.45518772
1.5780447721481323	16189733.100473715
1.582101821899414	16495753.16712048
1.5861525535583496	16584371.004198724
1.5901970863342285	16383774.14412838
1.5942351818084717	16011380.480761362
1.5982669591903687	15524640.345372034
1.6022924184799194	14769251.222223308
1.606311559677124	13800169.336928748
1.6103241443634033	12768960.379676796
1.6143304109573364	11618451.633283176
1.6183301210403442	10485902.148174446
1.6223233938217163	9708570.643736413
1.6263102293014526	9278544.861058936
1.6302905082702637	9116025.51212745
1.634264349937439	9432869.944476949
1.638231635093689	10199323.535400497
1.6421923637390137	10700583.065685423
1.646146535873413	10589601.576927554
1.6500942707061768	10622507.794113636
1.6540353298187256	10578425.0754873
1.6579699516296387	10491407.611380192
1.661897897720337	9999462.082682665
1.6658192873001099	6842880.126973971
1.6697341203689575	4442414.466686663
1.6736423969268799	6146743.9214053275
1.677544116973877	8128004.478476466
1.6814392805099487	8257339.022326854
1.6853278875350952	7707905.838431549
1.6892099380493164	7089343.743778873
1.6930854320526123	6408949.426202245
1.696954369544983	5767913.254995796
1.7008168697357178	5328767.186081009
1.7046726942062378	5312584.25016058
1.708522081375122	5830717.569459993
1.712364912033081	6402415.073913978
1.7162011861801147	6868041.025251986
1.7200311422348022	7219897.354763676
1.723854422569275	7051727.5302281855
1.7276713848114014	6757279.512196262
1.731481909751892	6624238.418280216
1.7352858781814575	6496378.75862435
1.7390835285186768	6452511.378341483
1.7428747415542603	6456037.128281094
1.7466596364974976	6341795.389860145
1.7504380941390991	6026226.437485819
1.7542102336883545	5438278.927830591
1.7579760551452637	4885537.137470364
1.7617355585098267	4589211.729215047
1.7654887437820435	4224326.268129166
1.7692357301712036	3794307.511476269
1.7729763984680176	3444177.0460365885
1.776710867881775	3195652.5362323457
1.7804391384124756	3043079.7460698383
1.7841613292694092	2755142.1500702817
1.7878772020339966	2486751.901330902
1.7915871143341064	2254908.1158472076
1.7952908277511597	2073609.8131207414
1.7989884614944458	2019634.2508291902
1.8026801347732544	1744235.275058269
1.806365728378296	1572047.4071625965
1.8100452423095703	1664998.4099135245
1.8137187957763672	1731155.8604025552
1.817386507987976	1616520.8226656439
1.8210482597351074	1638002.1623111241
1.8247040510177612	1891644.7344840076
1.828354001045227	1739248.3845274579
1.8319982290267944	1424986.661499295
1.8356364965438843	1293953.8413642023
1.8392690420150757	1286398.649147432
1.8428958654403687	1518120.8696804233
1.8465168476104736	1623758.6816712944
1.8501322269439697	1569048.129482519
1.8537418842315674	1504850.8292646012
1.8573459386825562	1294634.2396774704
1.860944390296936	1093810.7765883177
1.864537239074707	970263.2909626435
1.8681244850158691	866552.0735648306
1.871706247329712	944486.2479050952
1.8752825260162354	1385552.1057424152
1.8788533210754395	2058426.8245148878
1.8824186325073242	2482331.2585824393
1.8859784603118896	2487705.987122341
1.8895330429077148	2436907.504837809
1.8930821418762207	2700998.975464968
1.8966259956359863	2877049.6427197456
1.9001644849777222	2468578.8321852125
1.9036977291107178	2095311.1594304538
1.9072256088256836	2156022.185326527
1.9107483625411987	2113325.5133948415
1.9142658710479736	1926244.1324603339
1.9177782535552979	1941157.573723831
1.9212853908538818	1859716.2497422332
1.9247875213623047	1641503.1700592039
1.9282845258712769	1474293.167978043
1.9317764043807983	1350132.0249797476
1.9352631568908691	1257507.6659104263
1.9387450218200684	1145559.2243561987
1.942221760749817	1227365.825922687
1.9456936120986938	1414647.4353830523
1.9491604566574097	1511438.9328575372
1.952622413635254	1526556.6327734839
1.956079363822937	1504592.034797408
1.959531545639038	1615505.7382176907
1.962978720664978	1793621.8994874067
1.966421127319336	2003448.4018308318
1.9698586463928223	2101832.948717307
1.9732913970947266	2082281.3350043038
1.9767193794250488	2258937.2208510204
1.9801424741744995	2454058.1400570334
1.9835609197616577	2683393.114579331
1.9869745969772339	2923387.7638411373
1.990383505821228	2932475.4027617825
1.9937876462936401	3188768.618935509
1.9971871376037598	3566732.009741438
2.000581979751587	3742401.516955702
2.003972291946411	3903886.132450584
2.007357597351074	3944918.5192827815
2.0107386112213135	4098742.3860689895
2.0141148567199707	4304048.102457326
2.017486572265625	4230504.31381069
2.0208535194396973	4410629.025877154
2.0242159366607666	4835024.932785641
2.027573823928833	4937100.516909333
2.0309269428253174	5049413.016519789
2.034275770187378	5394767.926459395
2.0376198291778564	5606628.932933111
2.040959596633911	5669233.987566402
2.044294595718384	5941202.859313894
2.0476250648498535	6313594.462286273
2.0509510040283203	6427923.370935646
2.054272413253784	6526074.807489786
2.057589530944824	6838076.660021608
2.0609018802642822	7042026.833907042
2.0642096996307373	7107510.666576236
2.0675129890441895	7234623.240935362
2.0708119869232178	7347353.028086878
2.074106216430664	7407022.610095806
2.0773961544036865	7455853.252196056
2.080681324005127	7531559.863445485
2.0839622020721436	7608318.590060089
2.087238311767578	7656353.300713266
2.090510129928589	7696470.050565461
2.0937774181365967	7694643.9990423815
2.0970399379730225	7656163.641078196
2.1002981662750244	7587618.130997541
2.1035518646240234	7509211.269341288
2.1068007946014404	7438987.792993317
2.1100454330444336	7373527.146714368
2.1132853031158447	7350631.828723813
2.116520881652832	7269817.920476285
2.1197516918182373	7156503.637100374
2.1229779720306396	7107954.3168255035
2.12619948387146	7047915.326656259
2.1294167041778564	6954148.274675729
2.132629156112671	6875605.872093327
2.1358368396759033	6778623.751132457
2.139039993286133	6612665.137683451
2.1422386169433594	6341559.340280572
2.145432472229004	6064102.189037221
2.1486217975616455	5929754.157703489
2.151806354522705	5860442.409421191
2.1549863815307617	5776020.521018815
2.1581614017486572	5631230.670264447
2.16133189201355	5401381.877976749
2.1644976139068604	5208976.612380657
2.167658567428589	5052100.0133954445
2.1708147525787354	4900729.13742728
2.173966407775879	4750809.865756532
2.1771130561828613	4553568.748372208
2.1802549362182617	4365292.504556484
2.183391809463501	4164705.276543103
2.1865241527557373	3928198.671384786
2.1896514892578125	3594466.068393955
2.1927738189697266	3083716.1045953506
2.1958916187286377	2412841.4146612147
2.1990041732788086	1696408.3685229297
2.2021119594573975	1252548.3411736237
2.2052149772644043	1244106.2111327536
2.208312749862671	1511219.383380357
2.2114057540893555	1796162.9378568167
2.214493751525879	1974427.148090514
2.217576742172241	2070548.3433604834
2.2206547260284424	2069671.3739634864
2.2237277030944824	1987206.103814265
2.2267956733703613	1822911.7685457019
2.2298583984375	1639820.3568243557
2.2329163551330566	1567458.121843933
2.235969066619873	1541059.9883364302
2.2390167713165283	1423281.4346327488
2.2420592308044434	1281610.3036690075
2.2450966835021973	1182990.4875319998
2.248128890991211	1098698.6550967433
2.2511560916900635	1049441.161992708
2.254178285598755	1014011.9038663909
2.257194995880127	988704.3097099265
2.260206699371338	984586.7511875557
2.2632133960723877	997081.255261104
2.266214609146118	1031104.6448219584
2.2692108154296875	1057938.6497492488
2.2722020149230957	1068430.7675421722
2.2751877307891846	1046070.5450954502
2.278168201446533	1030082.5722454444
2.2811436653137207	998427.8963385103
2.284113883972168	902734.3203908248
2.287078857421875	837442.1544992685
2.290038824081421	786291.2298182858
2.2929933071136475	736897.7820436916
2.295942783355713	749733.0346180133
2.298887014389038	838733.9693699178
2.301826238632202	963409.8924321394
2.304760217666626	1143926.763199253
2.3076889514923096	1506099.611590764
2.310612440109253	1948082.207493
2.3135311603546143	1956380.906373135
2.3164443969726562	1263944.9344178922
2.319352865219116	625038.0854681685
2.322256088256836	547819.8091826902
2.3251543045043945	619899.8057923585
2.328047275543213	635010.0616442307
2.330935478210449	655123.8889425828
2.3338186740875244	682854.8117501033
2.3366971015930176	697797.1492341355
2.3395702838897705	699374.6839806344
2.3424389362335205	695865.6192511178
2.3453025817871094	675410.7461351219
2.348161458969116	682725.2241819861
2.351015567779541	750056.3664894673
2.353865146636963	834617.943838757
2.3567099571228027	932104.856330567
2.3595502376556396	1102631.479829346
2.3623859882354736	1287974.3784413026
2.3652172088623047	1327125.6526463483
2.368043899536133	1100507.3253506357
2.370866537094116	702613.9274976898
2.3736846446990967	545173.6050173013
2.3764986991882324	662497.1466026892
2.3793084621429443	752091.4534426115
2.3821144104003906	763043.8095728592
2.384916305541992	848787.829545429
2.387714147567749	1038695.7718192327
2.3905084133148193	1132080.233058754
2.393299102783203	1111385.2652507867
2.3960859775543213	1144576.9693842346
2.398869514465332	1301282.4429931398
2.4016497135162354	1457387.0195107698
2.4044265747070312	1501247.5485211206
2.407200336456299	1480305.2091140873
2.409970998764038	1602467.7346706567
2.4127390384674072	1818911.3942106757
2.415503978729248	1740077.56710394
2.418266534805298	1570425.5694396587
2.4210267066955566	1639861.6093086184
2.4237842559814453	1638067.686433395
2.426539897918701	1561943.1944544257
2.429293394088745	1747792.4274182895
2.4320452213287354	1958517.0468055422
2.4347951412200928	1852954.3887757563
2.4375438690185547	1888790.957036285
2.440291166305542	2166619.981189503
2.443037271499634	2163362.394828617
2.445782423019409	1993472.3316889906
2.4485268592834473	1957827.5073663795
2.451270818710327	1933788.7865417653
2.454014539718628	1968177.761631004
2.4567582607269287	2181898.011000676
2.4595019817352295	2239660.884303496
2.4622461795806885	2297481.9490856524
2.4649908542633057	2461159.385540334
2.4677364826202393	2252185.588797221
2.4704833030700684	1939296.3682337254
2.473231554031372	1810092.5895045882
2.4759814739227295	1818468.9525045047
2.4787333011627197	1894382.3810572273
2.481487512588501	1954443.519609722
