#wavelength	surface flux
0.6450077295303345	1972.04584650122
0.6472567915916443	3178.2348609265127
0.6494921445846558	4320.816348620194
0.6517150402069092	5201.623827769197
0.6539263725280762	6173.1378554825
0.6561272740364075	7259.800431853957
0.6583186388015747	8469.143281119794
0.6605015397071838	9806.585320016646
0.6626768708229065	11257.757737805836
0.6648455858230591	12784.799144262288
0.6670085787773132	13959.474045770934
0.6691668033599854	13782.370769877498
0.6713210344314575	14174.148665996649
0.6734722256660461	17643.561276311775
0.6756211519241333	21496.764125006397
0.6777685880661011	23856.222746859294
0.6799154281616211	25785.134208374744
0.6820623278617859	27557.08540149706
0.6842101216316223	29156.91701838314
0.6863595843315125	30532.263298460657
0.688511312007904	31563.61249119813
0.6906660795211792	31989.941571506744
0.6928245425224304	31975.81008587782
0.6949873566627502	32226.670127281664
0.6971551775932312	32569.464906935056
0.6993286609649658	32271.413342268082
0.7015084028244019	31406.542254705077
0.7036949396133423	30347.88324937268
0.7058889269828796	29151.998508898385
0.7080909013748169	27751.50461763239
0.710301399230957	26141.241896564323
0.712520956993103	24337.944806970543
0.7147500514984131	22167.516055731237
0.7169892191886902	19703.641330042312
0.7192389369010925	17670.17026222272
0.7214996814727783	16101.573949282045
0.723771870136261	14432.248034229537
0.7260559797286987	12752.316200642483
0.7283523678779602	11307.588581372576
0.7306615710258484	10057.214610926914
0.7329838871955872	8986.272637427994
0.7353196740150452	8038.138489474887
0.7376693487167358	7119.92464020686
0.7400332689285278	6281.781475095641
0.7424117922782898	5551.2187700781615
0.7448052167892456	4919.90079887093
0.7472138404846191	4366.701302929469
0.7496379613876343	3869.470064241874
0.7520779371261597	3417.3454799722767
0.7545340061187744	3000.6676556119987
0.7570064663887024	2607.359866982125
0.7594954967498779	2196.6890062556504
0.7620013952255249	1677.176396267493
0.7645244002342224	1046.5892601695455
0.7670646905899048	603.8692872841966
0.7696225643157959	662.7832655343032
0.7721980810165405	1300.950348980584
0.7747915983200073	2264.0331335082897
0.7774031162261963	3082.806338689697
0.7800329327583313	3815.552214569393
0.7826811671257019	4961.030368758308
0.7853479981422424	6431.218571648033
0.7880334854125977	7970.106351359884
0.7907378077507019	9374.449320903905
0.7934610247612	10358.045028852972
0.7962033748626709	12599.963505449785
0.7989648580551147	16944.247432745717
0.801745593547821	21672.591374954638
0.8045456409454346	26486.11601356074
0.8073651194572449	31847.01683331483
0.8102040886878967	37564.41444446774
0.8130625486373901	44087.165908657094
0.8159406185150146	52818.77831557142
0.8188382983207703	63922.895532470415
0.8217556476593018	75966.10252244979
0.8246926665306091	90089.62566935802
0.8276493549346924	106876.09880513059
0.8306257724761963	124748.78843680529
0.8336219191551208	144478.28622042315
0.8366377949714661	166991.6342127236
0.8396733403205872	192583.25534390888
0.8427285552024841	221858.8576377483
0.8458034992218018	252861.61557685494
0.8488980531692505	271104.26879450784
0.8520121574401855	284672.9031273681
0.8551458716392517	337893.17097698007
0.8582990765571594	407551.16454877914
0.8614717125892639	450957.08925029094
0.8646637797355652	491173.57083581266
0.8678751587867737	546047.3541218063
0.8711057901382446	607109.9016864166
0.8743556141853333	666566.1613514686
0.87762451171875	712976.9677899756
0.8809124231338501	720906.675997282
0.8842192888259888	702060.4422641277
0.8875449895858765	689493.3768949505
0.8908893465995789	654530.4393872654
0.894252359867096	620181.095874017
0.8976338505744934	730635.1594030072
0.9010337591171265	973655.4795072972
0.9044519662857056	1205557.8258034333
0.9078882932662964	1348237.1991574743
0.9113426208496094	1403673.5270643143
0.914814829826355	1428999.8898904743
0.9183048605918884	1491956.2614266286
0.9218124747276306	1541844.8973890773
0.925337553024292	1318924.5738404687
0.9288799166679382	877379.9311986183
0.9324395060539246	660650.4601635373
0.9360161423683167	774175.4274289198
0.9396095871925354	994200.9385026491
0.943219780921936	1113654.5181523268
0.9468464851379395	1110789.7954581594
0.9504896402359009	1104426.1512978594
0.9541489481925964	1096944.889693736
0.9578243494033813	1069486.2698033485
0.9615156054496765	1108037.5700380458
0.9652225375175476	1281898.2961181793
0.9689450263977051	1513911.6052002043
0.9726828336715698	1675834.972248101
0.9764357805252075	1799613.5739132122
0.9802037477493286	1933381.8235978943
0.983986496925354	2052649.3997939816
0.9877838492393494	2214400.601670001
0.9915955662727356	2454039.902771451
0.9954215884208679	2711334.492151443
0.9992615580558777	2960109.5556154004
1.0031154155731201	3277196.6069924077
1.0069829225540161	3644588.425679008
1.0108637809753418	3988714.583228549
1.0147579908370972	4326239.488420698
1.018665075302124	4650447.913424324
1.022585153579712	4948672.044320053
1.0265177488327026	5240709.867291016
1.0304628610610962	5539323.135710644
1.0344202518463135	5859573.375380343
1.0383895635604858	6199153.985747876
1.0423706769943237	6508152.310991877
1.0463634729385376	6758163.090027012
1.0503677129745483	6992742.813383208
1.0543830394744873	7245948.794715884
1.058409333229065	7463448.968706145
1.0624464750289917	7635600.086572614
1.0664942264556885	7761189.610223809
1.0705522298812866	7827874.1033392595
1.0746204853057861	7921769.418637427
1.0786986351013184	8021934.974380562
1.0827864408493042	7956362.719605964
1.086883783340454	7385070.549439814
1.0909905433654785	6122560.118265527
1.0951062440872192	4631850.86980221
1.0992310047149658	3442652.248612961
1.10336434841156	2554027.0309350365
1.1075061559677124	1865642.5030612305
1.1116561889648438	1367732.744768703
1.115814208984375	1105302.3197935645
1.1199802160263062	1077071.8916692052
1.124153733253479	1186852.1560527522
1.1283347606658936	1253406.0804730644
1.1325229406356812	1112542.668789253
1.1367181539535522	1148104.174275977
1.1409201622009277	1450732.279216575
1.145128846168518	1571135.8291835357
1.1493438482284546	1496388.0239594716
1.1535650491714478	1344125.2951414576
1.1577922105789185	1235771.6951001242
1.1620250940322876	1220756.20713838
1.1662636995315552	1286861.1858335542
1.170507550239563	1551403.478721532
1.174756646156311	1940232.99562002
1.1790107488632202	2434371.330805005
1.1832695007324219	3068466.001116557
1.1875330209732056	3687818.8312116666
1.191800832748413	4374827.377594729
1.1960728168487549	5192494.980978745
1.2003488540649414	5954145.564683749
1.2046287059783936	6675126.364675039
1.2089121341705322	7313294.97775579
1.2131990194320679	7852663.156942813
1.2174891233444214	8427697.234670037
1.2217823266983032	8999243.922760725
1.2260783910751343	9588824.155505398
1.230377197265625	10189455.691157904
1.2346785068511963	10683087.479529146
1.238982081413269	10972295.812572202
1.2432878017425537	11136405.076230822
1.2475954294204712	11282896.75646171
1.2519049644470215	11317904.846689992
1.256216049194336	11898180.115015764
1.2605286836624146	12758299.930613896
1.2648425102233887	12918069.358519746
1.2691574096679688	12647407.243631452
1.2734732627868652	12252624.000759803
1.2777899503707886	11801781.443657093
1.2821072340011597	11162780.12481288
1.2864248752593994	10276620.726073649
1.2907428741455078	9548137.72392188
1.2950609922409058	9224065.529522536
1.2993791103363037	8976271.546741853
1.303696870803833	8611875.491429547
1.3080145120620728	8204576.998063181
1.3123314380645752	7585914.113829625
1.3166478872299194	7022607.926517284
1.3209635019302368	6646018.9908913225
1.3252781629562378	5722034.042811274
1.3295916318893433	3892796.438055425
1.3339040279388428	1987644.6209260565
1.3382149934768677	907703.5099204361
1.3425244092941284	498736.34807401575
1.3468321561813354	322727.2278495206
1.3511382341384888	222706.41180617287
1.3554422855377197	160935.11203249265
1.3597444295883179	147518.1233489716
1.3640443086624146	185176.71494855636
1.3683418035507202	224032.4833701937
1.3726370334625244	263487.9394550676
1.3769296407699585	323633.7763514361
1.381219506263733	322334.78383029514
1.3855066299438477	281854.13034714805
1.3897908926010132	277595.0156478862
1.3940720558166504	275581.0461688473
1.3983501195907593	270883.1852631326
1.4026249647140503	281368.9231822189
1.4068963527679443	283749.6387494104
1.4111642837524414	284527.7718741693
1.4154287576675415	301100.95998419117
1.419689416885376	308490.97509839304
1.4239463806152344	329999.9163883643
1.4281994104385376	406435.3075923043
1.4324485063552856	483549.7651960918
1.436693549156189	525016.0200120105
1.440934419631958	573180.8758867487
1.4451709985733032	666089.4038283874
1.449403166770935	851053.0570129596
1.453631043434143	1059725.7988744653
1.4578542709350586	1192949.943680556
1.4620729684829712	1230630.263046699
1.4662868976593018	1189813.360084048
1.4704961776733398	1118777.2772678232
1.4747005701065063	1123244.0796180859
1.4788999557495117	1222207.2075888054
1.4830944538116455	1308003.9094700988
1.4872838258743286	1376670.895939023
1.491468071937561	1469656.2209983093
1.4956470727920532	1625983.218283602
1.4998208284378052	1845267.6430046035
1.5039892196655273	2014154.9346612352
1.5081522464752197	2106548.1676279837
1.5123097896575928	2194174.5276867137
1.5164618492126465	2365325.5644457415
1.5206083059310913	2724732.4224365763
1.5247491598129272	3153913.2633375316
1.5288842916488647	3528869.779762492
1.5330137014389038	3894473.462612022
1.5371372699737549	4218231.3309399
1.541254997253418	4513318.006580161
1.545366883277893	4908745.732830923
1.5494728088378906	5295427.932190369
1.5535727739334106	5570087.1606883295
1.5576666593551636	5984950.472888921
1.561754584312439	6748761.733740621
1.5658363103866577	7591354.824267394
1.5699119567871094	8044591.336029826
1.5739814043045044	8218490.040150923
1.5780447721481323	8485690.586027902
1.582101821899414	8748435.857168883
1.5861525535583496	8767265.641041413
1.5901970863342285	8509066.751850735
1.5942351818084717	8126081.236763521
1.5982669591903687	7667492.3439516565
1.6022924184799194	6998891.4012677185
1.606311559677124	6235751.711815956
1.6103241443634033	5547809.18851995
1.6143304109573364	4796954.308279314
1.6183301210403442	4092829.4876967226
1.6223233938217163	3783307.8032845976
1.6263102293014526	3788224.999459524
1.6302905082702637	3915687.1960828626
1.634264349937439	4302654.607318215
1.638231635093689	4941466.709112634
1.6421923637390137	5195802.542886206
1.646146535873413	4779808.1554752635
1.6500942707061768	4625582.165702579
1.6540353298187256	4587577.393864455
1.6579699516296387	4371490.768326295
1.661897897720337	4259527.094586512
1.6658192873001099	2908136.531563396
1.6697341203689575	1490492.520827775
1.6736423969268799	1948408.1955292793
1.677544116973877	2732343.455660379
1.6814392805099487	2741468.7106801304
1.6853278875350952	2490443.0452390416
1.6892099380493164	2213432.266311977
1.6930854320526123	1867937.4387395084
1.696954369544983	1556816.9065986443
1.7008168697357178	1369327.3825698516
1.7046726942062378	1406486.8198091148
1.708522081375122	1723773.1951151295
1.712364912033081	2071948.7569839514
1.7162011861801147	2368529.493836488
1.7200311422348022	2589479.7782987133
1.723854422569275	2493013.6498316796
1.7276713848114014	2315563.8024075115
1.731481909751892	2249606.1462585395
1.7352858781814575	2264725.0558776567
1.7390835285186768	2427225.9060984333
1.7428747415542603	2621746.2281940137
1.7466596364974976	2720582.753958566
1.7504380941390991	2671953.2460575206
1.7542102336883545	2410240.1995926714
1.7579760551452637	2123301.382296981
1.7617355585098267	1986822.3130282327
1.7654887437820435	1880654.5901049492
1.7692357301712036	1726541.505018035
1.7729763984680176	1575732.2705909829
1.776710867881775	1541995.4714232383
1.7804391384124756	1573231.5225827969
1.7841613292694092	1454713.3023744468
1.7878772020339966	1286533.7637989356
1.7915871143341064	1108774.4593554914
1.7952908277511597	1019504.6031310265
1.7989884614944458	1057330.524013969
1.8026801347732544	942301.6296614795
1.806365728378296	855099.5219100724
1.8100452423095703	907462.9719291001
1.8137187957763672	951008.8623036253
1.817386507987976	889622.5545183044
1.8210482597351074	904528.3858807057
1.8247040510177612	1052159.6335313083
1.828354001045227	956133.3685158889
1.8319982290267944	754326.6614345171
1.8356364965438843	658088.0945500617
1.8392690420150757	660222.152809614
1.8428958654403687	804815.6995079151
1.8465168476104736	857534.2196047131
1.8501322269439697	825142.0625158682
1.8537418842315674	810553.1664260621
1.8573459386825562	696447.0603093778
1.860944390296936	567367.4204768372
1.864537239074707	496030.2953310577
1.8681244850158691	444425.4147412417
1.871706247329712	480079.34673616604
1.8752825260162354	699090.438758647
1.8788533210754395	1060351.9350212351
1.8824186325073242	1308889.7914662682
1.8859784603118896	1333953.7814206644
1.8895330429077148	1319537.9763014512
1.8930821418762207	1462684.8607139285
1.8966259956359863	1555156.4187698173
1.9001644849777222	1322984.1528325863
1.9036977291107178	1121753.4987782256
1.9072256088256836	1169406.1994634583
1.9107483625411987	1135055.8072103627
1.9142658710479736	1024784.1899972094
1.9177782535552979	1056166.2011115828
1.9212853908538818	1032373.4672750095
1.9247875213623047	904652.0583247503
1.9282845258712769	781596.5590755374
1.9317764043807983	688165.2515771087
1.9352631568908691	629721.6116323342
1.9387450218200684	574592.4360126061
1.942221760749817	630173.0829961075
1.9456936120986938	728155.2350331746
1.9491604566574097	754863.1441188717
1.952622413635254	750687.8734545447
1.956079363822937	755396.2705982536
1.959531545639038	826093.1416258758
1.962978720664978	912213.4827037258
1.966421127319336	1007726.7553671661
1.9698586463928223	1060342.0836143806
1.9732913970947266	1060129.7192518436
1.9767193794250488	1156975.5868331427
1.9801424741744995	1249657.1251780307
1.9835609197616577	1338889.514347009
1.9869745969772339	1473726.3522018904
1.990383505821228	1565878.7898900954
1.9937876462936401	1780593.9470553163
1.9971871376037598	2010801.120928533
2.000581979751587	2125394.131625543
2.003972291946411	2186958.292414606
2.007357597351074	2196693.296283121
2.0107386112213135	2307684.5828931164
2.0141148567199707	2390269.1849341816
2.017486572265625	2319704.9536858043
2.0208535194396973	2495638.1415737355
2.0242159366607666	2840818.4796870733
2.027573823928833	2927221.0871820366
2.0309269428253174	3028299.05297472
2.034275770187378	3312243.8982531438
2.0376198291778564	3469813.4176577334
2.040959596633911	3496844.2084901235
2.044294595718384	3739872.678433229
2.0476250648498535	4106045.7581141433
2.0509510040283203	4204464.858151269
2.054272413253784	4265164.880760026
2.057589530944824	4565840.67382834
2.0609018802642822	4761908.963418232
2.0642096996307373	4826813.928485806
2.0675129890441895	4967108.040113473
2.0708119869232178	5081294.797217924
2.074106216430664	5149219.397252306
2.0773961544036865	5194962.4595026495
2.080681324005127	5261544.238659822
2.0839622020721436	5341343.51552543
2.087238311767578	5401641.144402639
2.090510129928589	5465474.725628071
2.0937774181365967	5466687.402672196
2.0970399379730225	5404571.821058331
2.1002981662750244	5296891.202830879
2.1035518646240234	5187899.065369062
2.1068007946014404	5094094.853013346
2.1100454330444336	4991242.275393923
2.1132853031158447	4946352.271850679
2.116520881652832	4835500.78575493
2.1197516918182373	4686135.728209123
2.1229779720306396	4626080.543177659
2.12619948387146	4557203.104785084
2.1294167041778564	4457978.659489098
2.132629156112671	4395254.389580513
2.1358368396759033	4312281.663432017
2.139039993286133	4104619.121769957
2.1422386169433594	3736937.5815482046
2.145432472229004	3387038.868689505
2.1486217975616455	3273086.2901159073
2.151806354522705	3245307.7509869323
2.1549863815307617	3147655.0453455723
2.1581614017486572	2986840.8870428912
2.16133189201355	2771932.10477505
2.1644976139068604	2591947.864293611
2.167658567428589	2446702.1457392015
2.1708147525787354	2353262.583575988
2.173966407775879	2291602.3050012453
2.1771130561828613	2177323.7111877236
2.1802549362182617	2061468.864420615
2.183391809463501	1918395.349659748
2.1865241527557373	1740640.7067618393
2.1896514892578125	1509804.057430117
2.1927738189697266	1179252.0129687404
2.1958916187286377	808286.5395189082
2.1990041732788086	479478.08356712543
2.2021119594573975	298921.75838499126
2.2052149772644043	290821.028402701
2.208312749862671	381070.31031264295
2.2114057540893555	500489.67733378656
2.214493751525879	602517.5664210264
2.217576742172241	666458.460215587
2.2206547260284424	672798.8908503451
2.2237277030944824	627574.5280586897
2.2267956733703613	557004.8141634206
2.2298583984375	487468.2809127047
2.2329163551330566	451876.44389442395
2.235969066619873	432745.27510944474
2.2390167713165283	382583.0610522933
2.2420592308044434	331020.2619423499
2.2450966835021973	296602.2624419824
2.248128890991211	262906.4582145919
2.2511560916900635	242660.25199791748
2.254178285598755	232887.43016566086
2.257194995880127	229885.33685402985
2.260206699371338	234667.1173019081
2.2632133960723877	243454.45523825072
2.266214609146118	253292.4536132893
2.2692108154296875	257768.47578969804
2.2722020149230957	258436.0493712811
2.2751877307891846	251001.92719910658
2.278168201446533	246565.7624910636
2.2811436653137207	236059.9985149039
2.284113883972168	200970.86631354518
2.287078857421875	174325.0855400803
2.290038824081421	159931.48125972645
2.2929933071136475	147277.586907453
2.295942783355713	150747.5087536303
2.298887014389038	175253.77009716586
2.301826238632202	205898.31539396336
2.304760217666626	257010.15685754942
2.3076889514923096	379604.2445064691
2.310612440109253	550785.8356872973
2.3135311603546143	589500.1053141404
2.3164443969726562	376683.75943445036
2.319352865219116	156440.16213397784
2.322256088256836	111549.9716399213
2.3251543045043945	121401.1024687099
2.328047275543213	125311.02988850052
2.330935478210449	138976.67049309926
2.3338186740875244	156332.6276746857
2.3366971015930176	169734.7484728918
2.3395702838897705	179559.12820016764
2.3424389362335205	181917.1451313408
2.3453025817871094	169116.938013914
2.348161458969116	163303.45023337792
2.351015567779541	179302.63136440996
2.353865146636963	200941.66260650134
2.3567099571228027	227863.1472481663
2.3595502376556396	275281.10980150447
2.3623859882354736	328329.7712846954
2.3652172088623047	349512.0626891366
2.368043899536133	301570.9160522068
2.370866537094116	193130.2299450696
2.3736846446990967	137963.26366862233
2.3764986991882324	160380.1956938415
2.3793084621429443	174239.8742929205
2.3821144104003906	168768.94813910223
2.384916305541992	199157.79081998757
2.387714147567749	267835.59933995357
2.3905084133148193	299833.2959008898
2.393299102783203	291681.95357113384
2.3960859775543213	302694.27690152795
2.398869514465332	352528.0548039364
2.4016497135162354	415232.61674112774
2.4044265747070312	462262.832899581
2.407200336456299	477284.665112345
2.409970998764038	517736.46843464294
2.4127390384674072	586386.2154184768
2.415503978729248	563587.2559995857
2.418266534805298	500165.5580710872
2.4210267066955566	487156.9745006301
2.4237842559814453	452753.5221850198
2.426539897918701	431780.8034284432
2.429293394088745	511993.91814131965
2.4320452213287354	592336.074902645
2.4347951412200928	581446.3812215321
2.4375438690185547	627829.7286628268
2.440291166305542	740541.5635436636
2.443037271499634	750824.3052278999
2.445782423019409	703353.50614794
2.4485268592834473	694203.919332268
2.451270818710327	701962.6814340135
2.454014539718628	739118.4519342958
2.4567582607269287	832944.8325291189
2.4595019817352295	890196.2398380073
2.4622461795806885	957109.4308432041
2.4649908542633057	1053444.1808678145
2.4677364826202393	985571.3094405986
2.4704833030700684	855986.729781079
2.473231554031372	815746.1745279544
2.4759814739227295	852909.8492403999
2.4787333011627197	897731.5077981869
2.481487512588501	916378.4071970083
