#wavelength	surface flux
0.6450077295303345	134868.54143886975
0.6472567915916443	214763.03868862713
0.6494921445846558	285464.4485743985
0.6517150402069092	334632.44835313945
0.6539263725280762	386851.55176756624
0.6561272740364075	443561.94036114286
0.6583186388015747	504538.987637415
0.6605015397071838	569030.3937390528
0.6626768708229065	634653.5698692921
0.6648455858230591	693101.4213290621
0.6670085787773132	702920.9292428463
0.6691668033599854	605595.265448823
0.6713210344314575	562853.9654784824
0.6734722256660461	763241.4858779733
0.6756211519241333	1016936.5746660666
0.6777685880661011	1162920.275892248
0.6799154281616211	1261256.7906432545
0.6820623278617859	1345735.2089757256
0.6842101216316223	1421053.7156492637
0.6863595843315125	1486312.463786622
0.688511312007904	1538955.0880171082
0.6906660795211792	1573207.9789415023
0.6928245425224304	1591875.969757734
0.6949873566627502	1610235.1697664452
0.6971551775932312	1626025.1903920358
0.6993286609649658	1622889.4044379832
0.7015084028244019	1601145.589685079
0.7036949396133423	1566707.7545122257
0.7058889269828796	1519465.8060145467
0.7080909013748169	1462170.0425649157
0.710301399230957	1398234.019068529
0.712520956993103	1327154.3727354666
0.7147500514984131	1246700.678972463
0.7169892191886902	1158981.5297184566
0.7192389369010925	1072735.629950096
0.7214996814727783	988215.1715732678
0.723771870136261	899919.0902558842
0.7260559797286987	810096.8326735571
0.7283523678779602	722828.9619010491
0.7306615710258484	639000.6011115494
0.7329838871955872	559296.1668574037
0.7353196740150452	483788.5759126636
0.7376693487167358	412011.73294808256
0.7400332689285278	344882.03948070883
0.7424117922782898	283051.46760971844
0.7448052167892456	226937.67094385694
0.7472138404846191	176912.3943320718
0.7496379613876343	133299.11111888994
0.7520779371261597	96385.66621216388
0.7545340061187744	66275.33140904033
0.7570064663887024	42871.98517506037
0.7594954967498779	25818.946248832097
0.7620013952255249	14281.869988256494
0.7645244002342224	7042.838523317075
0.7670646905899048	3572.307710033306
0.7696225643157959	3929.2029453838963
0.7721980810165405	8875.477670475766
0.7747915983200073	19293.69601766471
0.7774031162261963	33703.97745064612
0.7800329327583313	56423.666541813436
0.7826811671257019	99720.65987973484
0.7853479981422424	161878.70040968133
0.7880334854125977	235623.27247989492
0.7907378077507019	305675.14499417134
0.7934610247612	354251.1964971323
0.7962033748626709	466932.33389389125
0.7989648580551147	683995.2650200853
0.801745593547821	910993.7470828737
0.8045456409454346	1129221.4346114385
0.8073651194572449	1369279.8347247206
0.8102040886878967	1633631.7329551005
0.8130625486373901	1925996.450849134
0.8159406185150146	2236562.441113956
0.8188382983207703	2571812.1782207373
0.8217556476593018	2998688.8718534536
0.8246926665306091	3507059.1962092253
0.8276493549346924	4029276.186183766
0.8306257724761963	4568315.256925013
0.8336219191551208	5147290.874905803
0.8366377949714661	5773664.085902014
0.8396733403205872	6446108.485693998
0.8427285552024841	7157147.084756698
0.8458034992218018	7831681.884867904
0.8488980531692505	8044907.066479874
0.8520121574401855	8096287.951826848
0.8551458716392517	9371895.744702913
0.8582990765571594	10839173.691174518
0.8614717125892639	10654816.03943439
0.8646637797355652	10276145.991449974
0.8678751587867737	11030676.332003105
0.8711057901382446	12028563.63031658
0.8743556141853333	13050374.304339277
0.87762451171875	14336699.794860566
0.8809124231338501	15576814.7746846
0.8842192888259888	16797322.18725567
0.8875449895858765	17931582.352774445
0.8908893465995789	17981713.451189417
0.894252359867096	17643621.09965815
0.8976338505744934	20165988.16415725
0.9010337591171265	24448165.635263085
0.9044519662857056	27628875.277217526
0.9078882932662964	30047590.85757789
0.9113426208496094	32259813.50409873
0.914814829826355	34435671.782803446
0.9183048605918884	36702032.26697798
0.9218124747276306	38402524.85122559
0.925337553024292	36961135.30530145
0.9288799166679382	32834190.75200958
0.9324395060539246	31843942.546803188
0.9360161423683167	35859180.804149196
0.9396095871925354	41068592.928943075
0.943219780921936	44161320.380030826
0.9468464851379395	45342808.88572029
0.9504896402359009	46497974.410958044
0.9541489481925964	47364016.531950295
0.9578243494033813	47679815.99934179
0.9615156054496765	48907323.492064916
0.9652225375175476	52270496.00151793
0.9689450263977051	56879259.63027759
0.9726828336715698	61091976.406993106
0.9764357805252075	65285718.12971489
0.9802037477493286	69870622.53433482
0.983986496925354	73817618.60755864
0.9877838492393494	73972841.15679918
0.9915955662727356	68979924.59912914
0.9954215884208679	62690484.215021044
0.9992615580558777	55697998.05700831
1.0031154155731201	51928176.80120652
1.0069829225540161	54981492.51011237
1.0108637809753418	60627875.506824635
1.0147579908370972	66478116.3407208
1.018665075302124	72107982.98713097
1.022585153579712	76891165.33345377
1.0265177488327026	80392190.429008
1.0304628610610962	84581098.26519477
1.0344202518463135	90524400.82954916
1.0383895635604858	96395183.61521214
1.0423706769943237	101076120.84147137
1.0463634729385376	104542747.26966216
1.0503677129745483	106279226.45546056
1.0543830394744873	107346338.17789024
1.058409333229065	109751907.86184333
1.0624464750289917	114073183.12049988
1.0664942264556885	119827542.8836721
1.0705522298812866	126385788.25659895
1.0746204853057861	133395594.18610995
1.0786986351013184	140061650.96913493
1.0827864408493042	145244941.50532258
1.086883783340454	146043964.35057396
1.0909905433654785	138932387.37206474
1.0951062440872192	125067541.41971299
1.0992310047149658	108932406.48665303
1.10336434841156	92729514.1915365
1.1075061559677124	77461650.78617033
1.1116561889648438	65389661.75413825
1.115814208984375	60263370.88618093
1.1199802160263062	62483272.33034011
1.124153733253479	69576258.19010484
1.1283347606658936	72659572.750049
1.1325229406356812	62678091.82927427
1.1367181539535522	53229855.80483309
1.1409201622009277	57000648.315978944
1.145128846168518	68480163.69576879
1.1493438482284546	77585389.03206886
1.1535650491714478	77642546.46207307
1.1577922105789185	74118082.52927813
1.1620250940322876	70206090.81729065
1.1662636995315552	62458198.965155825
1.170507550239563	55852925.25288952
1.174756646156311	53124076.69153151
1.1790107488632202	56884746.129498154
1.1832695007324219	72403489.91942866
1.1875330209732056	90941371.9665388
1.191800832748413	104833410.51716276
1.1960728168487549	115510355.7309772
1.2003488540649414	124391310.35138202
1.2046287059783936	133408213.57994924
1.2089121341705322	142205722.11595705
1.2131990194320679	150438261.66050026
1.2174891233444214	158602017.4848767
1.2217823266983032	165583738.0237239
1.2260783910751343	172281578.29368612
1.230377197265625	177661542.08257902
1.2346785068511963	177668004.01618204
1.238982081413269	165696600.77470556
1.2432878017425537	147663101.5066404
1.2475954294204712	135858235.56432346
1.2519049644470215	129098805.5773233
1.256216049194336	146242371.2544871
1.2605286836624146	180837274.35665312
1.2648425102233887	200987399.86360925
1.2691574096679688	209308939.35156566
1.2734732627868652	213081915.43670627
1.2777899503707886	214701013.8123684
1.2821072340011597	213807312.23416933
1.2864248752593994	209455138.47204363
1.2907428741455078	205553188.40988216
1.2950609922409058	204037188.733459
1.2993791103363037	202662688.48173088
1.303696870803833	200400667.79486817
1.3080145120620728	196106757.72091448
1.3123314380645752	188349958.77992103
1.3166478872299194	178864108.20036107
1.3209635019302368	165370431.72036657
1.3252781629562378	139705897.23150054
1.3295916318893433	99073576.5386596
1.3339040279388428	54443082.172278896
1.3382149934768677	24939844.487305306
1.3425244092941284	14195139.733865216
1.3468321561813354	10907878.30830118
1.3511382341384888	8794083.201044936
1.3554422855377197	7391583.108962717
1.3597444295883179	7638079.325939566
1.3640443086624146	9545722.974278104
1.3683418035507202	11212687.60774947
1.3726370334625244	12697638.888607396
1.3769296407699585	14917339.34545303
1.381219506263733	14990476.558417687
1.3855066299438477	13128810.00897415
1.3897908926010132	11932105.201869441
1.3940720558166504	11029914.323177582
1.3983501195907593	10752409.919505676
1.4026249647140503	11445429.27044391
1.4068963527679443	11504925.712333713
1.4111642837524414	10694756.01358372
1.4154287576675415	10413509.956942724
1.419689416885376	10410382.255859427
1.4239463806152344	10631077.046387268
1.4281994104385376	11893293.046754463
1.4324485063552856	13299049.882069333
1.436693549156189	14131365.853492368
1.440934419631958	15042471.44949731
1.4451709985733032	16546843.370304616
1.449403166770935	19401980.87372688
1.453631043434143	22637541.143362615
1.4578542709350586	25131896.402291346
1.4620729684829712	26523000.789843053
1.4662868976593018	26794192.522102207
1.4704961776733398	27339771.6456627
1.4747005701065063	29113308.50833243
1.4788999557495117	31199114.90643043
1.4830944538116455	32723822.24312526
1.4872838258743286	34230575.32449065
1.491468071937561	36260147.128658
1.4956470727920532	38798040.949333906
1.4998208284378052	41625290.36947089
1.5039892196655273	44701864.54641404
1.5081522464752197	47849501.476050235
1.5123097896575928	51293726.69930514
1.5164618492126465	54683400.89031883
1.5206083059310913	58391051.96904687
1.5247491598129272	62255734.9993279
1.5288842916488647	65568629.14941789
1.5330137014389038	69262734.86110462
1.5371372699737549	72940520.81962663
1.541254997253418	75948201.38191989
1.545366883277893	79395651.75505781
1.5494728088378906	82605481.98358756
1.5535727739334106	84583611.71699306
1.5576666593551636	86676865.93252009
1.561754584312439	90390725.49122512
1.5658363103866577	94776298.64902759
1.5699119567871094	97655719.25977007
1.5739814043045044	99236526.62150297
1.5780447721481323	100632106.49125041
1.582101821899414	101961101.66489701
1.5861525535583496	102718051.1111463
1.5901970863342285	102444105.38248998
1.5942351818084717	101623690.9872984
1.5982669591903687	100468436.88226245
1.6022924184799194	98192792.30930807
1.606311559677124	95131802.72350794
1.6103241443634033	92039600.49355784
1.6143304109573364	88632069.66010079
1.6183301210403442	85157521.1690018
1.6223233938217163	82848787.13968728
1.6263102293014526	81718185.84040564
1.6302905082702637	81408627.54761098
1.634264349937439	82587915.02353705
1.638231635093689	85282737.9623399
1.6421923637390137	87052239.19826019
1.646146535873413	86792211.04810494
1.6500942707061768	86765533.23008204
1.6540353298187256	85568381.09010231
1.6579699516296387	83926567.96423873
1.661897897720337	78910714.79378743
1.6658192873001099	59368788.92212548
1.6697341203689575	46548804.98426833
1.6736423969268799	58771060.93364704
1.677544116973877	71957095.25875133
1.6814392805099487	73497631.2046253
1.6853278875350952	70291946.31341816
1.6892099380493164	66231892.58415749
1.6930854320526123	62130893.63002883
1.696954369544983	58288593.760539286
1.7008168697357178	55696868.6007147
1.7046726942062378	55187026.35873816
1.708522081375122	56265242.614245094
1.712364912033081	56641681.825646974
1.7162011861801147	56250438.331532784
1.7200311422348022	56090864.21134955
1.723854422569275	54505913.92214039
1.7276713848114014	52002499.68272469
1.731481909751892	49685529.4240563
1.7352858781814575	47281826.15545884
1.7390835285186768	45195676.93913354
1.7428747415542603	43600260.49562282
1.7466596364974976	41907226.29117384
1.7504380941390991	39659637.17729583
1.7542102336883545	36257345.013603956
1.7579760551452637	33261227.822901893
1.7617355585098267	31882958.804101925
1.7654887437820435	29807950.171219
1.7692357301712036	26827152.531264976
1.7729763984680176	24382818.683568884
1.776710867881775	22583306.75446966
1.7804391384124756	21274485.624292236
1.7841613292694092	19439308.90294489
1.7878772020339966	18117757.602766335
1.7915871143341064	17172226.65475952
1.7952908277511597	16221011.476136131
1.7989884614944458	15674281.673104996
1.8026801347732544	14012376.262312328
1.806365728378296	13167057.011150526
1.8100452423095703	13970550.664170446
1.8137187957763672	14827401.870050957
1.817386507987976	14086416.437283954
1.8210482597351074	13839997.046500826
1.8247040510177612	15450281.007842472
1.828354001045227	14859488.44081377
1.8319982290267944	13137068.0208201
1.8356364965438843	12429226.614761174
1.8392690420150757	12335226.634538213
1.8428958654403687	12900276.272863748
1.8465168476104736	12663867.592641242
1.8501322269439697	12167693.194235273
1.8537418842315674	11659228.586718203
1.8573459386825562	10071951.86490287
1.860944390296936	8778478.709041648
1.864537239074707	8546504.508471701
1.8681244850158691	8737394.836532732
1.871706247329712	9600208.786589429
1.8752825260162354	11697007.899653232
1.8788533210754395	14737252.329172444
1.8824186325073242	17128249.99818638
1.8859784603118896	17740698.94747607
1.8895330429077148	17748472.097777814
1.8930821418762207	19272400.249384616
1.8966259956359863	20757693.011970833
1.9001644849777222	19694210.484258045
1.9036977291107178	18487721.52123271
1.9072256088256836	19252247.70483656
1.9107483625411987	19336003.907312706
1.9142658710479736	18465745.227109212
1.9177782535552979	18529665.2028178
1.9212853908538818	17652442.83869096
1.9247875213623047	16156135.067410719
1.9282845258712769	15096195.417115368
1.9317764043807983	13948995.495466324
1.9352631568908691	12884283.917784285
1.9387450218200684	11631791.307561865
1.942221760749817	11867792.874252487
1.9456936120986938	13265649.57604876
1.9491604566574097	14054000.277497485
1.952622413635254	14003685.456035784
1.956079363822937	13321531.6777379
1.959531545639038	13430890.160357071
1.962978720664978	14235821.904853242
1.966421127319336	15579522.673186952
1.9698586463928223	16496179.147337746
1.9732913970947266	16024151.184928104
1.9767193794250488	16256264.039693695
1.9801424741744995	17197827.274317056
1.9835609197616577	18529838.203398142
1.9869745969772339	19589576.967571143
1.990383505821228	19123979.228889007
1.9937876462936401	20172035.749668323
1.9971871376037598	21918597.384068903
2.000581979751587	22924869.63477611
2.003972291946411	24431535.183057826
2.007357597351074	24479877.57125398
2.0107386112213135	24898250.718127254
2.0141148567199707	26779276.33311534
2.017486572265625	27411714.212309767
2.0208535194396973	29116844.593097042
2.0242159366607666	31299678.09370313
2.027573823928833	30927736.62613004
2.0309269428253174	31407297.62396888
2.034275770187378	33771897.600246035
2.0376198291778564	35032370.92581903
2.040959596633911	35183615.130248524
2.044294595718384	36199678.7608893
2.0476250648498535	37843259.4967637
2.0509510040283203	38209856.64202366
2.054272413253784	38516577.78859829
2.057589530944824	40441364.97161877
2.0609018802642822	41301377.886561714
2.0642096996307373	41064271.0061601
2.0675129890441895	41863041.50480241
2.0708119869232178	42395873.94599037
2.074106216430664	42257316.35236699
2.0773961544036865	42440534.38423897
2.080681324005127	42929643.18145215
2.0839622020721436	43232261.887000136
2.087238311767578	43435077.48733221
2.090510129928589	43759760.268283
2.0937774181365967	43836592.942021385
2.0970399379730225	43688638.56991378
2.1002981662750244	43401000.67728942
2.1035518646240234	42985612.80518279
2.1068007946014404	42623486.11998228
2.1100454330444336	42431774.77262614
2.1132853031158447	42544218.08135534
2.116520881652832	42248429.455556154
2.1197516918182373	41761730.59173889
2.1229779720306396	41767169.59461803
2.12619948387146	41604965.680285424
2.1294167041778564	41070979.69244805
2.132629156112671	40790020.75345912
2.1358368396759033	40484753.013574846
2.139039993286133	39597804.73881648
2.1422386169433594	38333501.3159589
2.145432472229004	37205297.05705504
2.1486217975616455	36620835.65277746
2.151806354522705	36366957.28804894
2.1549863815307617	36173871.44826477
2.1581614017486572	35653691.62595679
2.16133189201355	34785736.77670763
2.1644976139068604	34074546.109224476
2.167658567428589	33321613.67975611
2.1708147525787354	32451723.548317097
2.173966407775879	31444537.924306396
2.1771130561828613	30314797.183020785
2.1802549362182617	29369232.70645253
2.183391809463501	28198007.907967683
2.1865241527557373	26676300.154051967
2.1896514892578125	24960339.794517886
2.1927738189697266	22778675.296996973
2.1958916187286377	19622313.981081523
2.1990041732788086	15835224.201855913
2.2021119594573975	12865994.64818374
2.2052149772644043	11632737.050407218
2.208312749862671	12160414.132283041
2.2114057540893555	13720517.37539701
2.214493751525879	15359643.007177707
2.217576742172241	16348665.577417564
2.2206547260284424	16679288.014098596
2.2237277030944824	16498097.442468906
2.2267956733703613	15578197.20616305
2.2298583984375	14649068.811114777
2.2329163551330566	14155434.817071976
2.235969066619873	13757337.767169354
2.2390167713165283	13164185.281047674
2.2420592308044434	12293078.772572557
2.2450966835021973	11571199.732310344
2.248128890991211	11282378.15780757
2.2511560916900635	11165967.839729385
2.254178285598755	11059171.08642217
2.257194995880127	11034217.008986102
2.260206699371338	10971421.928387592
2.2632133960723877	10924167.488076996
2.266214609146118	10922631.665440211
2.2692108154296875	10819407.985541541
2.2722020149230957	10688327.98907325
2.2751877307891846	10519848.978652257
2.278168201446533	10264754.05800322
2.2811436653137207	9789396.391925683
2.284113883972168	9149581.24654306
2.287078857421875	8681411.07876839
2.290038824081421	8150897.577548708
2.2929933071136475	7733752.694660788
2.295942783355713	7908128.42593182
2.298887014389038	8647745.816383285
2.301826238632202	9583052.595161982
2.304760217666626	10762423.364282608
2.3076889514923096	12648452.712388113
2.310612440109253	14463607.304109726
2.3135311603546143	14160793.450260906
2.3164443969726562	10640630.54277485
2.319352865219116	7229980.355369136
2.322256088256836	6420999.81840417
2.3251543045043945	6345555.773700697
2.328047275543213	6255367.406842542
2.330935478210449	6447202.329842111
2.3338186740875244	6703068.587052368
2.3366971015930176	6888293.2885928145
2.3395702838897705	7009726.82593337
2.3424389362335205	7045697.72206254
2.3453025817871094	6989442.694550985
2.348161458969116	7072303.59932437
2.351015567779541	7438641.726200472
2.353865146636963	7985497.424268916
2.3567099571228027	8519755.605896145
2.3595502376556396	9286932.958508924
2.3623859882354736	10259358.347831346
2.3652172088623047	10718082.263666976
2.368043899536133	9650386.036103483
2.370866537094116	7193015.112607354
2.3736846446990967	6090201.210922422
2.3764986991882324	6533742.6762843635
2.3793084621429443	6549879.916652692
2.3821144104003906	6301968.848854634
2.384916305541992	6795325.72957724
2.387714147567749	7977675.773145154
2.3905084133148193	8614982.996937396
2.393299102783203	8665472.463001097
2.3960859775543213	9018735.008106021
2.398869514465332	9750082.524303675
2.4016497135162354	10296218.329834847
2.4044265747070312	10513050.899671063
2.407200336456299	10449631.734966075
2.409970998764038	10697158.837632589
2.4127390384674072	11331067.142693449
2.415503978729248	11090098.41439986
2.418266534805298	10598884.507240523
2.4210267066955566	10895559.277514834
2.4237842559814453	10828371.247632638
2.426539897918701	10341544.83611234
2.429293394088745	10715533.726710245
2.4320452213287354	11335845.561861072
2.4347951412200928	10849197.961483954
2.4375438690185547	10860126.253975296
2.440291166305542	11666514.953675011
2.443037271499634	11281492.616969803
2.445782423019409	10563016.45865786
2.4485268592834473	10592252.080889925
2.451270818710327	10374999.222097326
2.454014539718628	10192807.190387143
2.4567582607269287	11091454.020306977
2.4595019817352295	11259938.411696738
2.4622461795806885	11306960.857356679
2.4649908542633057	11837834.414520377
2.4677364826202393	10707820.758325312
2.4704833030700684	9409809.166888649
2.473231554031372	8978066.86123252
2.4759814739227295	9089151.129825618
2.4787333011627197	9482175.369378341
2.481487512588501	9670677.710385118
