#wavelength	surface flux
0.6450077295303345	32481.349601698323
0.6472567915916443	51953.712088065244
0.6494921445846558	69608.29812946926
0.6517150402069092	82341.07205220529
0.6539263725280762	96025.46900699055
0.6561272740364075	111041.9491646636
0.6583186388015747	127378.86688578938
0.6605015397071838	144948.62285394216
0.6626768708229065	163407.07886792612
0.6648455858230591	181572.70520900012
0.6670085787773132	191225.36755508854
0.6691668033599854	177179.21444319809
0.6713210344314575	173870.8976691459
0.6734722256660461	224027.7773762548
0.6756211519241333	283484.7872311598
0.6777685880661011	318182.1314807426
0.6799154281616211	343992.99116060126
0.6820623278617859	367018.60088759055
0.6842101216316223	387782.2390215317
0.6863595843315125	405914.55356216576
0.688511312007904	420005.6736330982
0.6906660795211792	428264.64063298854
0.6928245425224304	432485.313645478
0.6949873566627502	436595.3742292116
0.6971551775932312	439268.40029057843
0.6993286609649658	436811.6035898958
0.7015084028244019	429537.333524691
0.7036949396133423	419398.1514610653
0.7058889269828796	406791.71787468664
0.7080909013748169	391111.0726782547
0.710301399230957	372400.8491394222
0.712520956993103	351134.7503284136
0.7147500514984131	326856.8199860327
0.7169892191886902	300211.7968461154
0.7192389369010925	274558.705887506
0.7214996814727783	250229.1693382044
0.723771870136261	225024.9191980744
0.7260559797286987	199628.2602428934
0.7283523678779602	175536.30795037848
0.7306615710258484	153009.70291519465
0.7329838871955872	132194.50278656255
0.7353196740150452	113017.50055350571
0.7376693487167358	95239.58199271961
0.7400332689285278	79121.4378923698
0.7424117922782898	64793.34627489685
0.7448052167892456	52246.69041821369
0.7472138404846191	41434.579756016035
0.7496379613876343	32284.869756210875
0.7520779371261597	24702.03400815773
0.7545340061187744	18542.031636316842
0.7570064663887024	13624.117732494695
0.7594954967498779	9725.668524115663
0.7620013952255249	6525.133759950972
0.7645244002342224	3776.0473449386986
0.7670646905899048	2056.846942157965
0.7696225643157959	2241.8349745596693
0.7721980810165405	4655.599935695982
0.7747915983200073	8721.44408274021
0.7774031162261963	13128.851270978052
0.7800329327583313	18840.246071791276
0.7826811671257019	29155.53091878439
0.7853479981422424	43717.21408690278
0.7880334854125977	60939.90234750917
0.7907378077507019	77651.2502315444
0.7934610247612	89984.37696427501
0.7962033748626709	118813.87998601336
0.7989648580551147	174510.13094337686
0.801745593547821	235112.19196158013
0.8045456409454346	296439.84733735654
0.8073651194572449	365928.5308094447
0.8102040886878967	444031.2289051468
0.8130625486373901	532661.2688197211
0.8159406185150146	634670.2871376189
0.8188382983207703	751120.2515222012
0.8217556476593018	885184.6500196287
0.8246926665306091	1038582.0170489061
0.8276493549346924	1205234.9803758338
0.8306257724761963	1381029.39688663
0.8336219191551208	1570749.7826956578
0.8366377949714661	1777686.2959551048
0.8396733403205872	2001745.4639454526
0.8427285552024841	2243214.948651638
0.8458034992218018	2482698.6349986163
0.8488980531692505	2588663.6650035456
0.8520121574401855	2648141.5543789016
0.8551458716392517	3087738.390831101
0.8582990765571594	3643016.721288667
0.8614717125892639	3829319.3506529867
0.8646637797355652	3968670.519573386
0.8678751587867737	4334110.351836225
0.8711057901382446	4749056.984509781
0.8743556141853333	5166046.769118476
0.87762451171875	5616882.43170154
0.8809124231338501	6002041.744434536
0.8842192888259888	6331461.401014994
0.8875449895858765	6629407.197865689
0.8908893465995789	6566648.377369985
0.894252359867096	6392557.00465096
0.8976338505744934	7324584.699908716
0.9010337591171265	9000387.541734321
0.9044519662857056	10320777.249398248
0.9078882932662964	11268215.53616532
0.9113426208496094	11989397.701444454
0.914814829826355	12630354.456940541
0.9183048605918884	13364364.007109175
0.9218124747276306	13947425.387316875
0.925337553024292	13095448.467278976
0.9288799166679382	10897241.486388994
0.9324395060539246	10051714.135392789
0.9360161423683167	11559814.189372895
0.9396095871925354	13715598.904831285
0.943219780921936	14818029.763929214
0.9468464851379395	14991255.974006668
0.9504896402359009	15307227.951362025
0.9541489481925964	15620160.649343155
0.9578243494033813	15729622.731080322
0.9615156054496765	16269196.856979953
0.9652225375175476	17717674.071051735
0.9689450263977051	19622578.59542356
0.9726828336715698	21242510.191152632
0.9764357805252075	22746530.16495636
0.9802037477493286	24371382.99722884
0.983986496925354	25918681.857422054
0.9877838492393494	27099674.2560821
0.9915955662727356	27617445.658712156
0.9954215884208679	27232232.49059686
0.9992615580558777	25858967.626619283
1.0031154155731201	25554435.403200336
1.0069829225540161	27365590.49167365
1.0108637809753418	29816277.53845739
1.0147579908370972	32236484.390496943
1.018665075302124	34497081.893697105
1.022585153579712	36463951.222158946
1.0265177488327026	38084522.37960475
1.0304628610610962	39842288.41201741
1.0344202518463135	42083552.150653236
1.0383895635604858	44397057.6273457
1.0423706769943237	46441993.75532992
1.0463634729385376	48198824.65453376
1.0503677129745483	49610402.68725675
1.0543830394744873	50852113.366594404
1.058409333229065	52193590.274316125
1.0624464750289917	53813067.801204346
1.0664942264556885	55651760.731665246
1.0705522298812866	57486898.62956903
1.0746204853057861	59380559.79944468
1.0786986351013184	61208326.315124966
1.0827864408493042	62313996.60714356
1.086883783340454	61085967.49904927
1.0909905433654785	56001670.57735905
1.0951062440872192	48140127.577680826
1.0992310047149658	39926864.50136058
1.10336434841156	32273997.268295668
1.1075061559677124	25437199.058142364
1.1116561889648438	20088986.696330722
1.115814208984375	17552634.349982608
1.1199802160263062	18057871.34501074
1.124153733253479	20562492.673238955
1.1283347606658936	21881154.934985314
1.1325229406356812	19158642.52910432
1.1367181539535522	17755819.594523944
1.1409201622009277	20384839.997567147
1.145128846168518	23092381.768748857
1.1493438482284546	24374629.40517849
1.1535650491714478	23556327.96713357
1.1577922105789185	22246322.547526404
1.1620250940322876	21722318.965168178
1.1662636995315552	20932748.93292867
1.170507550239563	20842703.51817262
1.174756646156311	21649099.48727512
1.1790107488632202	24347574.146143507
1.1832695007324219	30520626.403116263
1.1875330209732056	37252502.0551486
1.191800832748413	42810929.21705508
1.1960728168487549	47889327.94708341
1.2003488540649414	52314246.67173533
1.2046287059783936	56493002.23339616
1.2089121341705322	60393281.89857331
1.2131990194320679	63962451.79895434
1.2174891233444214	67577186.4439703
1.2217823266983032	70793936.57253404
1.2260783910751343	73771726.332474
1.230377197265625	76384699.07882357
1.2346785068511963	77337246.61783239
1.238982081413269	74358660.43858293
1.2432878017425537	69116465.79106441
1.2475954294204712	65123896.19369612
1.2519049644470215	62466536.00093621
1.256216049194336	68813824.02989595
1.2605286836624146	81412352.37202592
1.2648425102233887	88327279.6522186
1.2691574096679688	90707400.59873246
1.2734732627868652	91420826.2932346
1.2777899503707886	91262376.60306376
1.2821072340011597	89836576.10372894
1.2864248752593994	86977354.44263703
1.2907428741455078	84408900.09007849
1.2950609922409058	82838893.01983786
1.2993791103363037	81267355.60821187
1.303696870803833	79437581.29762754
1.3080145120620728	76986152.43466377
1.3123314380645752	72789279.21102042
1.3166478872299194	68027220.11004902
1.3209635019302368	62383577.36696709
1.3252781629562378	51991265.80336741
1.3295916318893433	36043679.23711093
1.3339040279388428	19493021.132025454
1.3382149934768677	8828646.249265408
1.3425244092941284	4732637.1325171245
1.3468321561813354	3387922.977482843
1.3511382341384888	2611315.908954402
1.3554422855377197	2099783.890198318
1.3597444295883179	2118884.3831621385
1.3640443086624146	2696930.714655547
1.3683418035507202	3247954.2861634395
1.3726370334625244	3813482.3346211794
1.3769296407699585	4618277.186065636
1.381219506263733	4574387.142113843
1.3855066299438477	3861780.6982087353
1.3897908926010132	3502316.9309982783
1.3940720558166504	3299679.8783839247
1.3983501195907593	3273957.8254096443
1.4026249647140503	3538607.646662489
1.4068963527679443	3602756.4720223173
1.4111642837524414	3401815.3973002317
1.4154287576675415	3355941.5000302955
1.419689416885376	3384122.573306142
1.4239463806152344	3553461.9571827585
1.4281994104385376	4149503.7947227596
1.4324485063552856	4732970.371928417
1.436693549156189	5048341.954783003
1.440934419631958	5443878.326030152
1.4451709985733032	6142001.832617908
1.449403166770935	7411853.916229815
1.453631043434143	8827446.098574216
1.4578542709350586	9953568.320608098
1.4620729684829712	10577561.149127774
1.4662868976593018	10631633.189367842
1.4704961776733398	10743390.934504226
1.4747005701065063	11430777.239319175
1.4788999557495117	12335109.587296423
1.4830944538116455	13010622.235432135
1.4872838258743286	13691159.610462949
1.491468071937561	14678357.291116843
1.4956470727920532	15961104.698934508
1.4998208284378052	17377798.142774075
1.5039892196655273	18823539.337211132
1.5081522464752197	20192446.796485044
1.5123097896575928	21668063.666098095
1.5164618492126465	23302034.34034618
1.5206083059310913	25272768.417326555
1.5247491598129272	27313620.522199
1.5288842916488647	29036955.67316115
1.5330137014389038	30835678.474163625
1.5371372699737549	32588565.168908134
1.541254997253418	34046536.669923
1.545366883277893	35690655.45474071
1.5494728088378906	37227224.662540145
1.5535727739334106	38282571.68901215
1.5576666593551636	39560219.73005395
1.561754584312439	41628998.90256347
1.5658363103866577	43857261.15279708
1.5699119567871094	45217404.23471591
1.5739814043045044	45929013.43245226
1.5780447721481323	46666813.74159704
1.582101821899414	47337694.50945737
1.5861525535583496	47525208.446739554
1.5901970863342285	47059608.00554423
1.5942351818084717	46241885.695473
1.5982669591903687	45228723.59092127
1.6022924184799194	43603942.43274164
1.606311559677124	41505687.57195595
1.6103241443634033	39336430.264718734
1.6143304109573364	36947512.89416556
1.6183301210403442	34593490.75255469
1.6223233938217163	33043777.249378018
1.6263102293014526	32283651.41588876
1.6302905082702637	32088082.0189422
1.634264349937439	32889212.706348907
1.638231635093689	34703122.48231907
1.6421923637390137	35931759.06964281
1.646146535873413	35773349.100230776
1.6500942707061768	35850458.57358757
1.6540353298187256	35431153.34262336
1.6579699516296387	34770571.790558256
1.661897897720337	32749401.30431508
1.6658192873001099	23283758.736214098
1.6697341203689575	16543684.973135903
1.6736423969268799	22121660.43814214
1.677544116973877	28473203.546713244
1.6814392805099487	29163771.886600163
1.6853278875350952	27592063.13240266
1.6892099380493164	25702872.108469762
1.6930854320526123	23733465.264709074
1.696954369544983	21868573.720943406
1.7008168697357178	20593317.359601118
1.7046726942062378	20464255.876725163
1.708522081375122	21503276.19932532
1.712364912033081	22412885.40749949
1.7162011861801147	22955121.641899798
1.7200311422348022	23408525.699356847
1.723854422569275	22823477.12880581
1.7276713848114014	21852569.29363837
1.731481909751892	21117355.699685536
1.7352858781814575	20321155.042787958
1.7390835285186768	19697129.690302815
1.7428747415542603	19275755.71780071
1.7466596364974976	18696823.5152634
1.7504380941390991	17713580.4117577
1.7542102336883545	16075172.399884492
1.7579760551452637	14596809.105564283
1.7617355585098267	13876165.828054894
1.7654887437820435	12871561.415536407
1.7692357301712036	11529259.016350474
1.7729763984680176	10437560.683069691
1.776710867881775	9649314.753862258
1.7804391384124756	9113858.569302402
1.7841613292694092	8291584.881154331
1.7878772020339966	7639791.6210286645
1.7915871143341064	7126946.624184522
1.7952908277511597	6659181.979127249
1.7989884614944458	6466565.517725967
1.8026801347732544	5713927.972689916
1.806365728378296	5278791.444192024
1.8100452423095703	5608487.038862044
1.8137187957763672	5934713.518258825
1.817386507987976	5615475.393556004
1.8210482597351074	5590576.479596678
1.8247040510177612	6322076.130650846
1.828354001045227	5964318.630236946
1.8319982290267944	5129007.165486083
1.8356364965438843	4789457.962973637
1.8392690420150757	4755372.3227181705
1.8428958654403687	5199418.216593448
1.8465168476104736	5285622.844740086
1.8501322269439697	5092494.443130235
1.8537418842315674	4887567.824615173
1.8573459386825562	4237847.492006788
1.860944390296936	3660022.3674580525
1.864537239074707	3433829.1829973753
1.8681244850158691	3348123.8248384097
1.871706247329712	3679023.3288090187
1.8752825260162354	4782437.579916986
1.8788533210754395	6404814.350603164
1.8824186325073242	7547288.584540156
1.8859784603118896	7710096.0840241145
1.8895330429077148	7668106.651338151
1.8930821418762207	8458832.62412553
1.8966259956359863	9103376.064588752
1.9001644849777222	8295383.730162448
1.9036977291107178	7521359.169848604
1.9072256088256836	7847842.379544819
1.9107483625411987	7815753.874691758
1.9142658710479736	7328315.992699424
1.9177782535552979	7391060.245413634
1.9212853908538818	7056899.108748129
1.9247875213623047	6355566.131720529
1.9282845258712769	5853335.450014411
1.9317764043807983	5398815.362635629
1.9352631568908691	5026240.597768784
1.9387450218200684	4582048.997399275
1.942221760749817	4765112.967468347
1.9456936120986938	5375639.911144855
1.9491604566574097	5726021.461400264
1.952622413635254	5761777.293037413
1.956079363822937	5533964.702928172
1.959531545639038	5676349.041304999
1.962978720664978	6135637.6959617045
1.966421127319336	6806432.859120686
1.9698586463928223	7230601.13624382
1.9732913970947266	7085646.743471899
1.9767193794250488	7345028.255313451
1.9801424741744995	7864049.945000974
1.9835609197616577	8562060.923258832
1.9869745969772339	9135967.706105864
1.990383505821228	8968152.915775128
1.9937876462936401	9570291.571586475
1.9971871376037598	10510114.927514978
2.000581979751587	11015917.974430092
2.003972291946411	11708701.054781849
2.007357597351074	11785489.463956071
2.0107386112213135	12110076.056566684
2.0141148567199707	12984154.273230407
2.017486572265625	13151278.852403617
2.0208535194396973	13959263.998523733
2.0242159366607666	15146357.09106437
2.027573823928833	15096812.590626586
2.0309269428253174	15338177.990520753
2.034275770187378	16493280.693194805
2.0376198291778564	17127036.92279213
2.040959596633911	17180318.915615357
2.044294595718384	17782035.833448034
2.0476250648498535	18721542.246365134
2.0509510040283203	18899402.63022917
2.054272413253784	19045149.573251102
2.057589530944824	19999932.894969556
2.0609018802642822	20477206.136130493
2.0642096996307373	20424397.13285489
2.0675129890441895	20768294.53031081
2.0708119869232178	21025083.18783582
2.074106216430664	21016561.494154334
2.0773961544036865	21085256.668926716
2.080681324005127	21298708.426156886
2.0839622020721436	21459762.710076768
2.087238311767578	21544314.307240207
2.090510129928589	21656317.1281064
2.0937774181365967	21645723.756289124
2.0970399379730225	21531036.890358854
2.1002981662750244	21328130.78841188
2.1035518646240234	21066624.848098896
2.1068007946014404	20844068.61541411
2.1100454330444336	20689965.575603817
2.1132853031158447	20678617.297178738
2.116520881652832	20474866.953797083
2.1197516918182373	20176938.207379736
2.1229779720306396	20112805.4748681
2.12619948387146	19991561.261856575
2.1294167041778564	19716175.302026976
2.132629156112671	19530931.57474001
2.1358368396759033	19313688.480759736
2.139039993286133	18834859.5842929
2.1422386169433594	18108235.13810303
2.145432472229004	17413165.627707306
2.1486217975616455	17086675.416388292
2.151806354522705	16965038.744699135
2.1549863815307617	16834696.325162157
2.1581614017486572	16518114.74143401
2.16133189201355	16004485.07801592
2.1644976139068604	15592756.943343287
2.167658567428589	15200396.3746192
2.1708147525787354	14781048.668791724
2.173966407775879	14324191.884152407
2.1771130561828613	13786857.785366323
2.1802549362182617	13313216.482562877
2.183391809463501	12729958.334087633
2.1865241527557373	11995350.1074456
2.1896514892578125	11114739.703000827
2.1927738189697266	9915427.416040324
2.1958916187286377	8230898.710538023
2.1990041732788086	6293628.884956151
2.2021119594573975	4944425.682186747
2.2052149772644043	4628113.462926646
2.208312749862671	5115039.063266774
2.2114057540893555	5902230.852529672
2.214493751525879	6574445.540917726
2.217576742172241	6946429.71989106
2.2206547260284424	7039013.341615093
2.2237277030944824	6895497.668509939
2.2267956733703613	6435830.52622837
2.2298583984375	5970822.484233609
2.2329163551330566	5741584.431801584
2.235969066619873	5581989.7036839975
2.2390167713165283	5290576.975536128
2.2420592308044434	4889889.944546746
2.2450966835021973	4567924.891265144
2.248128890991211	4393445.850979705
2.2511560916900635	4311911.115622591
2.254178285598755	4252677.724817438
2.257194995880127	4229774.701562373
2.260206699371338	4209349.07336759
2.2632133960723877	4217097.724066792
2.266214609146118	4268144.058564696
2.2692108154296875	4273043.244725864
2.2722020149230957	4251120.014148905
2.2751877307891846	4181638.935877229
2.278168201446533	4098500.934537394
2.2811436653137207	3931865.974510898
2.284113883972168	3635733.9895055494
2.287078857421875	3417752.9988517803
2.290038824081421	3199001.7320418768
2.2929933071136475	3028017.1526844464
2.295942783355713	3103883.408855178
2.298887014389038	3429827.8368430394
2.301826238632202	3847177.3252615193
2.304760217666626	4404609.344325044
2.3076889514923096	5397366.255913586
2.310612440109253	6463868.59669916
2.3135311603546143	6398196.376428912
2.3164443969726562	4535180.154859356
2.319352865219116	2759145.5019025104
2.322256088256836	2449309.8951280196
2.3251543045043945	2539297.637745147
2.328047275543213	2551609.3267859956
2.330935478210449	2649412.0900879097
2.3338186740875244	2758110.146603879
2.3366971015930176	2821502.1895576473
2.3395702838897705	2846073.4188065818
2.3424389362335205	2833480.5322919753
2.3453025817871094	2777797.216330674
2.348161458969116	2803532.65842308
2.351015567779541	2987951.3361036633
2.353865146636963	3237452.7096170904
2.3567099571228027	3493082.3355087177
2.3595502376556396	3916420.8137996583
2.3623859882354736	4419800.035411512
2.3652172088623047	4599283.3478798885
2.368043899536133	4023122.8793217223
2.370866537094116	2831882.769163655
2.3736846446990967	2328086.174083022
2.3764986991882324	2607601.6617462314
2.3793084621429443	2725445.7780447234
2.3821144104003906	2679439.1226078887
2.384916305541992	2938715.4892561273
2.387714147567749	3508163.7758335047
2.3905084133148193	3793787.2577443374
2.393299102783203	3783118.977419901
2.3960859775543213	3928011.0155740827
2.398869514465332	4312706.764625376
2.4016497135162354	4647143.02870127
2.4044265747070312	4766774.309595476
2.407200336456299	4730646.54901996
2.409970998764038	4931940.410946533
2.4127390384674072	5340209.682715636
2.415503978729248	5186449.167747827
2.418266534805298	4878575.769854383
2.4210267066955566	5053556.94005226
2.4237842559814453	5026959.458438492
2.426539897918701	4801541.544188894
2.429293394088745	5115804.185640668
2.4320452213287354	5530808.033711213
2.4347951412200928	5275995.734797854
2.4375438690185547	5299855.686053885
2.440291166305542	5823783.5420505935
2.443037271499634	5722500.902797874
2.445782423019409	5348777.572642673
2.4485268592834473	5323953.641033582
2.451270818710327	5229756.4854043955
2.454014539718628	5198012.616176924
2.4567582607269287	5665613.426984854
2.4595019817352295	5765484.082885985
2.4622461795806885	5839007.043931222
2.4649908542633057	6166764.498359614
2.4677364826202393	5628247.847989967
2.4704833030700684	4940781.467538508
2.473231554031372	4691749.492216425
2.4759814739227295	4732402.867072059
2.4787333011627197	4931379.580805489
2.481487512588501	5054073.642006599
