#wavelength	surface flux
0.6450077295303345	2049.2700071856275
0.6472567915916443	3335.741988213482
0.6494921445846558	4616.371808098531
0.6517150402069092	5669.444863567151
0.6539263725280762	6854.6156844102015
0.6561272740364075	8199.443496687658
0.6583186388015747	9718.959891114637
0.6605015397071838	11421.776174491197
0.6626768708229065	13287.919105839395
0.6648455858230591	15264.096360641088
0.6670085787773132	16738.601669630854
0.6691668033599854	16376.420368650057
0.6713210344314575	16831.33166449762
0.6734722256660461	21542.242097746646
0.6756211519241333	26880.583619819172
0.6777685880661011	30212.806506296427
0.6799154281616211	32930.59508138071
0.6820623278617859	35439.92518618901
0.6842101216316223	37726.134111632746
0.6863595843315125	39709.995921878915
0.688511312007904	41189.29027182074
0.6906660795211792	41688.325521981824
0.6928245425224304	41510.37066304095
0.6949873566627502	41979.21263838939
0.6971551775932312	42789.2875307715
0.6993286609649658	42545.1832678189
0.7015084028244019	41366.474239631374
0.7036949396133423	39960.943973803645
0.7058889269828796	38421.58128491491
0.7080909013748169	36592.4086726669
0.710301399230957	34426.867372563815
0.712520956993103	31945.633366138434
0.7147500514984131	28833.06419753548
0.7169892191886902	25212.761772320322
0.7192389369010925	22332.650605788152
0.7214996814727783	20232.889027200552
0.723771870136261	17941.851718209655
0.7260559797286987	15608.699983486742
0.7283523678779602	13666.073992426936
0.7306615710258484	12021.656530625622
0.7329838871955872	10615.042801894711
0.7353196740150452	9375.02046491145
0.7376693487167358	8152.041683332595
0.7400332689285278	7026.984951322877
0.7424117922782898	6059.147258267747
0.7448052167892456	5247.747889149132
0.7472138404846191	4562.241625674873
0.7496379613876343	3968.367475123452
0.7520779371261597	3453.0086847378766
0.7545340061187744	2996.290707926193
0.7570064663887024	2567.8782974052815
0.7594954967498779	2124.778310581322
0.7620013952255249	1597.5374096709616
0.7645244002342224	977.861043647684
0.7670646905899048	534.3492373749958
0.7696225643157959	586.8579133737089
0.7721980810165405	1215.0901722803128
0.7747915983200073	2158.484473157062
0.7774031162261963	2981.285499361999
0.7800329327583313	3750.337605905835
0.7826811671257019	4944.797077816491
0.7853479981422424	6488.730545929275
0.7880334854125977	8157.679264936964
0.7907378077507019	9726.238295825127
0.7934610247612	10871.739444761508
0.7962033748626709	13549.035510734451
0.7989648580551147	18778.230522875732
0.801745593547821	24604.7281572739
0.8045456409454346	30646.771955691813
0.8073651194572449	37298.41948211107
0.8102040886878967	44239.676939022
0.8130625486373901	52289.47664097328
0.8159406185150146	63500.36972088356
0.8188382983207703	77825.67827591945
0.8217556476593018	93136.98180234751
0.8246926665306091	111236.03931780007
0.8276493549346924	132947.8082701945
0.8306257724761963	155981.99754096442
0.8336219191551208	181252.81510860636
0.8366377949714661	209862.86900449626
0.8396733403205872	242566.23249053577
0.8427285552024841	280625.53647754865
0.8458034992218018	321440.156093355
0.8488980531692505	344950.7778827534
0.8520121574401855	361697.25536773895
0.8551458716392517	431595.1321601306
0.8582990765571594	521355.8589969001
0.8614717125892639	570462.6112286077
0.8646637797355652	614542.3556811758
0.8678751587867737	682436.6964607756
0.8711057901382446	759099.169016878
0.8743556141853333	832436.1606462941
0.87762451171875	883155.2505562723
0.8809124231338501	868053.0555555696
0.8842192888259888	810822.001223696
0.8875449895858765	771449.28326942
0.8908893465995789	718964.0488160065
0.894252359867096	680644.7829752909
0.8976338505744934	828724.8085142138
0.9010337591171265	1153139.157817841
0.9044519662857056	1477922.7997764735
0.9078882932662964	1680527.0207990662
0.9113426208496094	1745691.1198754054
0.914814829826355	1755936.8918512228
0.9183048605918884	1824462.5964767118
0.9218124747276306	1884997.216730292
0.925337553024292	1589587.2231485152
0.9288799166679382	1031144.5178531084
0.9324395060539246	758543.9031159879
0.9360161423683167	860293.6037141659
0.9396095871925354	1083196.5692925688
0.943219780921936	1229019.6985380445
0.9468464851379395	1256497.1601529233
0.9504896402359009	1262244.323624111
0.9541489481925964	1254600.4254552256
0.9578243494033813	1215528.3897428634
0.9615156054496765	1247352.670046166
0.9652225375175476	1429957.503999676
0.9689450263977051	1667529.3287339488
0.9726828336715698	1826162.89022691
0.9764357805252075	1950570.398632464
0.9802037477493286	2081586.528900633
0.983986496925354	2179666.1830981043
0.9877838492393494	2328756.6424129205
0.9915955662727356	2588692.9403638965
0.9954215884208679	2888250.143468787
0.9992615580558777	3185983.753922507
1.0031154155731201	3581871.2803748166
1.0069829225540161	4058604.129965331
1.0108637809753418	4523611.884945198
1.0147579908370972	5017045.580448576
1.018665075302124	5524780.458537782
1.022585153579712	5993334.3261733465
1.0265177488327026	6441169.336694247
1.0304628610610962	6913907.015069008
1.0344202518463135	7438279.885748381
1.0383895635604858	7975527.128827621
1.0423706769943237	8437534.994935948
1.0463634729385376	8791814.00972037
1.0503677129745483	9105212.972759407
1.0543830394744873	9446701.807621742
1.058409333229065	9746092.085013954
1.0624464750289917	9994648.536891887
1.0664942264556885	10184065.789396709
1.0705522298812866	10296131.786885323
1.0746204853057861	10467919.95904552
1.0786986351013184	10618669.219921399
1.0827864408493042	10452063.697234398
1.086883783340454	9433520.000485346
1.0909905433654785	7389478.685537188
1.0951062440872192	5241936.331812539
1.0992310047149658	3782042.7397582973
1.10336434841156	2807023.1565608527
1.1075061559677124	2050298.8541299934
1.1116561889648438	1493803.7738188407
1.115814208984375	1181255.938112046
1.1199802160263062	1100975.4820863248
1.124153733253479	1162711.236782294
1.1283347606658936	1213449.521411414
1.1325229406356812	1068343.987026561
1.1367181539535522	1081850.1747432572
1.1409201622009277	1374504.7287679648
1.145128846168518	1498392.9664278156
1.1493438482284546	1402807.657054052
1.1535650491714478	1233769.0992379317
1.1577922105789185	1138407.487956942
1.1620250940322876	1119086.0737694148
1.1662636995315552	1170575.1794986033
1.170507550239563	1438265.1308498587
1.174756646156311	1824124.1735420858
1.1790107488632202	2321948.6021994604
1.1832695007324219	2980473.778326616
1.1875330209732056	3636451.4460765915
1.191800832748413	4430440.52859337
1.1960728168487549	5413832.639183748
1.2003488540649414	6336730.777684529
1.2046287059783936	7257839.597646796
1.2089121341705322	8095850.525383609
1.2131990194320679	8798492.239434002
1.2174891233444214	9560047.887096655
1.2217823266983032	10353304.035815412
1.2260783910751343	11218929.837603306
1.230377197265625	12118308.128565812
1.2346785068511963	12877537.791383024
1.238982081413269	13350308.178685453
1.2432878017425537	13642382.123029774
1.2475954294204712	13928888.409535097
1.2519049644470215	14017781.624470688
1.256216049194336	14810083.475819392
1.2605286836624146	15910703.864003688
1.2648425102233887	15909895.619496962
1.2691574096679688	15321302.639141357
1.2734732627868652	14678364.721704032
1.2777899503707886	14059602.834437001
1.2821072340011597	13212653.227688476
1.2864248752593994	12010721.58451086
1.2907428741455078	11070332.304967841
1.2950609922409058	10720907.400458451
1.2993791103363037	10401025.546456574
1.303696870803833	9832581.21160181
1.3080145120620728	9181011.418401776
1.3123314380645752	8320875.090508698
1.3166478872299194	7589533.818736011
1.3209635019302368	7144691.700342349
1.3252781629562378	6130141.423733019
1.3295916318893433	4070217.3013196946
1.3339040279388428	1957012.5441796724
1.3382149934768677	848834.2621359907
1.3425244092941284	467778.2992534801
1.3468321561813354	294892.4494126071
1.3511382341384888	198544.61833609745
1.3554422855377197	144522.1608407593
1.3597444295883179	133836.5250618938
1.3640443086624146	167584.91715185897
1.3683418035507202	199148.74079661714
1.3726370334625244	225061.0683859703
1.3769296407699585	268885.2219633228
1.381219506263733	269455.9171804568
1.3855066299438477	243454.48290131812
1.3897908926010132	245999.4399550886
1.3940720558166504	245681.46217905532
1.3983501195907593	238867.6837097312
1.4026249647140503	242440.64980538448
1.4068963527679443	240126.2383617263
1.4111642837524414	244453.3332100794
1.4154287576675415	267227.5656589807
1.419689416885376	273566.7143394022
1.4239463806152344	285191.30584933015
1.4281994104385376	347605.73585932836
1.4324485063552856	417580.00284066494
1.436693549156189	460763.65136148623
1.440934419631958	506399.05181228206
1.4451709985733032	587839.0325226963
1.449403166770935	759466.4003696322
1.453631043434143	961910.588331527
1.4578542709350586	1084597.4195767138
1.4620729684829712	1112590.971647265
1.4662868976593018	1075313.2248105078
1.4704961776733398	1006344.3421949187
1.4747005701065063	1009556.8707636012
1.4788999557495117	1108292.9913051154
1.4830944538116455	1192729.1694284824
1.4872838258743286	1264702.7780424748
1.491468071937561	1355948.9373331768
1.4956470727920532	1496964.6740263978
1.4998208284378052	1693644.1115645564
1.5039892196655273	1838258.8530443013
1.5081522464752197	1934534.137013111
1.5123097896575928	2051311.8320935727
1.5164618492126465	2215709.1175140347
1.5206083059310913	2524641.9180915905
1.5247491598129272	2906295.630827734
1.5288842916488647	3254669.259555725
1.5330137014389038	3601039.8968025832
1.5371372699737549	3894084.608854447
1.541254997253418	4160711.263029641
1.545366883277893	4556489.745908292
1.5494728088378906	4930755.77444127
1.5535727739334106	5134489.95567326
1.5576666593551636	5504347.605176985
1.561754584312439	6322224.660902194
1.5658363103866577	7241079.893216768
1.5699119567871094	7696047.826330661
1.5739814043045044	7832744.3025098825
1.5780447721481323	8092860.079219624
1.582101821899414	8344706.92182343
1.5861525535583496	8311393.5513158925
1.5901970863342285	7977248.8263629945
1.5942351818084717	7531935.817897429
1.5982669591903687	7018395.560732958
1.6022924184799194	6270500.859755532
1.606311559677124	5454350.959570591
1.6103241443634033	4797472.89841954
1.6143304109573364	4094957.3847746113
1.6183301210403442	3431175.79177293
1.6223233938217163	3226048.8329978385
1.6263102293014526	3369424.8787151007
1.6302905082702637	3574688.098490338
1.634264349937439	3981976.6978962244
1.638231635093689	4625204.902210044
1.6421923637390137	4802495.538230933
1.646146535873413	4225059.525914556
1.6500942707061768	4046036.5095096505
1.6540353298187256	4059719.482157762
1.6579699516296387	3736376.0703718346
1.661897897720337	3603311.159281599
1.6658192873001099	2479930.3890093225
1.6697341203689575	1161564.96729456
1.6736423969268799	1436433.157315541
1.677544116973877	2058600.775416075
1.6814392805099487	2049455.73961842
1.6853278875350952	1832555.3718598625
1.6892099380493164	1593421.7423988169
1.6930854320526123	1293256.5381309644
1.696954369544983	1043017.0456934085
1.7008168697357178	909231.701659
1.7046726942062378	960551.5397063957
1.708522081375122	1229285.304584853
1.712364912033081	1506751.935858133
1.7162011861801147	1749463.835953622
1.7200311422348022	1942170.8434157083
1.723854422569275	1866423.2766159049
1.7276713848114014	1709273.7242837353
1.731481909751892	1631348.2427740379
1.7352858781814575	1643275.0365008404
1.7390835285186768	1826675.6721413597
1.7428747415542603	2057499.966657015
1.7466596364974976	2199201.3807939366
1.7504380941390991	2188661.9688620283
1.7542102336883545	1975212.6160016947
1.7579760551452637	1729898.250434978
1.7617355585098267	1615750.9941390252
1.7654887437820435	1537602.5956948402
1.7692357301712036	1402826.3298106648
1.7729763984680176	1278165.1677464955
1.776710867881775	1301663.3379842883
1.7804391384124756	1383238.0862170812
1.7841613292694092	1292564.7753906718
1.7878772020339966	1134545.799554365
1.7915871143341064	963135.1143701269
1.7952908277511597	890508.6877130832
1.7989884614944458	948404.1424830247
1.8026801347732544	868301.6875779636
1.806365728378296	803072.2744764446
1.8100452423095703	854676.9163453628
1.8137187957763672	899828.8968389098
1.817386507987976	842750.5317609723
1.8210482597351074	854788.906181753
1.8247040510177612	997566.0924690482
1.828354001045227	918904.0130577643
1.8319982290267944	732447.7870068708
1.8356364965438843	634505.9317745015
1.8392690420150757	635810.1559470106
1.8428958654403687	768605.3080101606
1.8465168476104736	811628.4206349176
1.8501322269439697	777406.3938757663
1.8537418842315674	764935.0912977713
1.8573459386825562	661700.1902886573
1.860944390296936	543553.1068677957
1.864537239074707	481855.62156958855
1.8681244850158691	437882.0352751934
1.871706247329712	472166.1730792986
1.8752825260162354	669156.5737272387
1.8788533210754395	998548.2334300793
1.8824186325073242	1239572.965328858
1.8859784603118896	1279603.8292950878
1.8895330429077148	1271207.158914104
1.8930821418762207	1394408.368816365
1.8966259956359863	1474722.5420520739
1.9001644849777222	1268326.7726743314
1.9036977291107178	1093487.2589758807
1.9072256088256836	1153836.4885758758
1.9107483625411987	1129765.2638382567
1.9142658710479736	1026267.3962015314
1.9177782535552979	1060590.8033864927
1.9212853908538818	1043375.7522419587
1.9247875213623047	924483.907994841
1.9282845258712769	800185.5841827272
1.9317764043807983	701335.074432792
1.9352631568908691	640134.9317341011
1.9387450218200684	585832.8377358943
1.942221760749817	644523.732678778
1.9456936120986938	742240.6689497947
1.9491604566574097	766338.3642357222
1.952622413635254	759296.7121495961
1.956079363822937	756262.9748521755
1.959531545639038	819054.1964686415
1.962978720664978	899668.8930826213
1.966421127319336	989006.6936246222
1.9698586463928223	1050143.5821951104
1.9732913970947266	1055743.9208079127
1.9767193794250488	1137789.700399095
1.9801424741744995	1221608.4123547734
1.9835609197616577	1304645.071914528
1.9869745969772339	1431122.7759522344
1.990383505821228	1535468.4691145944
1.9937876462936401	1756301.0217222937
1.9971871376037598	1966553.4571942778
2.000581979751587	2073590.5308446495
2.003972291946411	2133010.69622617
2.007357597351074	2139126.2029306344
2.0107386112213135	2249053.7871273845
2.0141148567199707	2332715.469706146
2.017486572265625	2284805.231222693
2.0208535194396973	2499961.385953581
2.0242159366607666	2868013.5387769695
2.027573823928833	2944167.959608123
2.0309269428253174	3042637.049031144
2.034275770187378	3358855.5656547872
2.0376198291778564	3535610.6444432917
2.040959596633911	3546038.045923347
2.044294595718384	3794437.5982783725
2.0476250648498535	4200390.49439277
2.0509510040283203	4294493.713647495
2.054272413253784	4326776.321225708
2.057589530944824	4655835.650582188
2.0609018802642822	4856726.864774725
2.0642096996307373	4901321.581758602
2.0675129890441895	5060819.814617425
2.0708119869232178	5181275.080730529
2.074106216430664	5240493.8917322345
2.0773961544036865	5273230.744854925
2.080681324005127	5322155.957526606
2.0839622020721436	5380332.716253734
2.087238311767578	5427164.805400915
2.090510129928589	5500625.552279486
2.0937774181365967	5493141.597720046
2.0970399379730225	5392560.970864563
2.1002981662750244	5238087.10008339
2.1035518646240234	5094679.614566098
2.1068007946014404	4963229.651367878
2.1100454330444336	4811580.468175528
2.1132853031158447	4742952.75055463
2.116520881652832	4609982.830409214
2.1197516918182373	4435528.830534217
2.1229779720306396	4372743.690610107
2.12619948387146	4301901.637568125
2.1294167041778564	4192257.7684957613
2.132629156112671	4123494.866027472
2.1358368396759033	4023583.2017269447
2.139039993286133	3763667.2125337203
2.1422386169433594	3328730.650000655
2.145432472229004	2926753.059924531
2.1486217975616455	2806414.9195221774
2.151806354522705	2795364.9012315082
2.1549863815307617	2698211.3061492653
2.1581614017486572	2532158.2732086424
2.16133189201355	2319534.251792452
2.1644976139068604	2137921.9093747996
2.167658567428589	1982939.2552776667
2.1708147525787354	1896917.9368971328
2.173966407775879	1853945.1335417193
2.1771130561828613	1756006.2893751787
2.1802549362182617	1656424.7521491544
2.183391809463501	1527809.2583607647
2.1865241527557373	1363416.1908627183
2.1896514892578125	1163605.121124973
2.1927738189697266	893517.0844580882
2.1958916187286377	598444.0937273016
2.1990041732788086	344297.9698695569
2.2021119594573975	205951.57380436824
2.2052149772644043	189370.66131305284
2.208312749862671	242910.91510091643
2.2114057540893555	330915.9674968938
2.214493751525879	418869.3319378354
2.217576742172241	477311.5129518932
2.2206547260284424	487544.0599412589
2.2237277030944824	454932.12013018085
2.2267956733703613	404318.4721254823
2.2298583984375	355782.2756975313
2.2329163551330566	327551.5508185509
2.235969066619873	309478.3634253526
2.2390167713165283	270814.17262252036
2.2420592308044434	232372.6935162403
2.2450966835021973	206046.85268178396
2.248128890991211	181880.3535229256
2.2511560916900635	167840.00904921527
2.254178285598755	161123.58065086557
2.257194995880127	160760.64525851788
2.260206699371338	166152.52040363717
2.2632133960723877	173038.23081557848
2.266214609146118	178901.27346296463
2.2692108154296875	181068.42025770125
2.2722020149230957	180449.6518910017
2.2751877307891846	173885.1281940204
2.278168201446533	169677.33862633794
2.2811436653137207	161449.50367842917
2.284113883972168	135878.04672697038
2.287078857421875	114353.02905818474
2.290038824081421	102752.42522826695
2.2929933071136475	94870.59479710188
2.295942783355713	97944.76902327374
2.298887014389038	115182.98416376095
2.301826238632202	136645.77998093856
2.304760217666626	172277.51269322296
2.3076889514923096	256361.54427235457
2.310612440109253	374071.35480397113
2.3135311603546143	406261.70875309705
2.3164443969726562	265750.3442696668
2.319352865219116	112478.16473908853
2.322256088256836	75989.12414999711
2.3251543045043945	78208.17522869627
2.328047275543213	80312.84646295826
2.330935478210449	92154.30461562074
2.3338186740875244	107099.98944106049
2.3366971015930176	119337.34245035955
2.3395702838897705	127887.0916825339
2.3424389362335205	128454.18883000994
2.3453025817871094	116890.75571232218
2.348161458969116	111053.32478076068
2.351015567779541	122090.0959407374
2.353865146636963	137815.47522015404
2.3567099571228027	156381.67938250754
2.3595502376556396	185814.9811137598
2.3623859882354736	219864.59048506935
2.3652172088623047	240005.16888291284
2.368043899536133	216335.35899806352
2.370866537094116	142999.13097687624
2.3736846446990967	100032.75532293605
2.3764986991882324	111361.5096640863
2.3793084621429443	116591.96739109735
2.3821144104003906	110585.40883478743
2.384916305541992	133296.82816490848
2.387714147567749	184201.337296844
2.3905084133148193	207769.89481214524
2.393299102783203	201717.05908221094
2.3960859775543213	210386.94832442622
2.398869514465332	244803.70280571657
2.4016497135162354	289890.2885269774
2.4044265747070312	334052.519332965
2.407200336456299	356070.51437273587
2.409970998764038	381933.91383557074
2.4127390384674072	422302.4112081233
2.415503978729248	410196.86472769594
2.418266534805298	369705.0845384013
2.4210267066955566	350798.2302170701
2.4237842559814453	317722.2177104132
2.426539897918701	302897.2684828975
2.429293394088745	357447.8091845918
2.4320452213287354	409247.64425210166
2.4347951412200928	406027.9991800682
2.4375438690185547	447015.305751296
2.440291166305542	531362.5113838222
2.443037271499634	546149.4181767523
2.445782423019409	521336.61121417355
2.4485268592834473	520073.732079134
2.451270818710327	533269.851654217
2.454014539718628	566329.1353353871
2.4567582607269287	634173.0336692907
2.4595019817352295	683738.5946909396
2.4622461795806885	742819.3296941163
2.4649908542633057	821280.6203097146
2.4677364826202393	781501.0499110244
2.4704833030700684	691974.454638765
2.473231554031372	666531.0507861092
2.4759814739227295	702281.6560676718
2.4787333011627197	741801.2308753238
2.481487512588501	753945.6813478096
