#wavelength	surface flux
0.6450077295303345	11065.99447601672
0.6472567915916443	17634.847926446433
0.6494921445846558	23492.096121019233
0.6517150402069092	27655.591405841245
0.6539263725280762	32184.52657355895
0.6561272740364075	37225.1118359439
0.6583186388015747	42792.07474593717
0.6605015397071838	48893.635342807596
0.6626768708229065	55472.16394863828
0.6648455858230591	62302.472093361335
0.6670085787773132	67217.46101562497
0.6691668033599854	65423.75893417092
0.6713210344314575	66465.7647470712
0.6734722256660461	82713.6722898867
0.6756211519241333	101102.05917748454
0.6777685880661011	112250.06539479877
0.6799154281616211	121195.2592618522
0.6820623278617859	129372.33022309616
0.6842101216316223	136760.06595783756
0.6863595843315125	143160.6844643526
0.688511312007904	148171.09365564148
0.6906660795211792	151196.84274208694
0.6928245425224304	152628.97131479287
0.6949873566627502	153736.80583555877
0.6971551775932312	154091.80321219878
0.6993286609649658	152411.14297548783
0.7015084028244019	148854.0593239987
0.7036949396133423	144080.35510241822
0.7058889269828796	138297.51935624363
0.7080909013748169	131556.59603945317
0.710301399230957	123981.33506219546
0.712520956993103	115694.81485253539
0.7147500514984131	106505.2863500929
0.7169892191886902	96660.95279838824
0.7192389369010925	87561.78149179814
0.7214996814727783	79371.80624268981
0.723771870136261	71146.36262904396
0.7260559797286987	63094.61185686092
0.7283523678779602	55686.03346891719
0.7306615710258484	48912.18786403554
0.7329838871955872	42794.95907485494
0.7353196740150452	37220.612914241334
0.7376693487167358	32029.250950282443
0.7400332689285278	27317.959546293285
0.7424117922782898	23124.07847802635
0.7448052167892456	19426.433025237526
0.7472138404846191	16201.85908766261
0.7496379613876343	13427.409938491995
0.7520779371261597	11072.813365384749
0.7545340061187744	9084.170610673653
0.7570064663887024	7380.828982557512
0.7594954967498779	5835.501443891376
0.7620013952255249	4251.875680286296
0.7645244002342224	2568.2594507963404
0.7670646905899048	1401.8982977396556
0.7696225643157959	1531.1973845669067
0.7721980810165405	3160.6988819645576
0.7747915983200073	5669.345189408606
0.7774031162261963	7975.99762529917
0.7800329327583313	10403.845480890166
0.7826811671257019	14517.845823376849
0.7853479981422424	20079.697026442536
0.7880334854125977	26312.35606474837
0.7907378077507019	32231.54853494426
0.7934610247612	36534.767085956606
0.7962033748626709	46498.38335862839
0.7989648580551147	65736.00821985549
0.801745593547821	86642.01706864347
0.8045456409454346	107861.29109312431
0.8073651194572449	132019.6148643365
0.8102040886878967	159247.38291118076
0.8130625486373901	190557.92392821758
0.8159406185150146	228481.7248247902
0.8188382983207703	273666.36502140027
0.8217556476593018	324519.1762483431
0.8246926665306091	383272.2795628137
0.8276493549346924	450717.48330720945
0.8306257724761963	524447.1185381182
0.8336219191551208	606444.1409919376
0.8366377949714661	698745.7974364402
0.8396733403205872	801773.2344345337
0.8427285552024841	916436.032844581
0.8458034992218018	1034488.6684172143
0.8488980531692505	1098890.8296820843
0.8520121574401855	1146329.948437441
0.8551458716392517	1359898.901390142
0.8582990765571594	1642262.9790011994
0.8614717125892639	1809997.8579522353
0.8646637797355652	1962525.6208922411
0.8678751587867737	2178669.166666904
0.8711057901382446	2416477.0332177207
0.8743556141853333	2660413.6600298053
0.87762451171875	2904831.5921163717
0.8809124231338501	3099745.0728304265
0.8842192888259888	3253408.986149592
0.8875449895858765	3391726.994637268
0.8908893465995789	3345998.2282311795
0.894252359867096	3249157.5613693544
0.8976338505744934	3764821.504331715
0.9010337591171265	4723592.1605885485
0.9044519662857056	5516596.763796474
0.9078882932662964	6074006.382394989
0.9113426208496094	6466942.963644856
0.914814829826355	6809256.157889937
0.9183048605918884	7228746.068171281
0.9218124747276306	7563560.538191592
0.925337553024292	6956236.55561968
0.9288799166679382	5436536.138050252
0.9324395060539246	4760996.902736812
0.9360161423683167	5644906.55565318
0.9396095871925354	6995220.179975184
0.943219780921936	7616396.462042431
0.9468464851379395	7595922.827253635
0.9504896402359009	7716518.071965335
0.9541489481925964	7873450.747274819
0.9578243494033813	7918177.4079481345
0.9615156054496765	8277489.197335339
0.9652225375175476	9274609.081579247
0.9689450263977051	10590561.080269597
0.9726828336715698	11669392.122380225
0.9764357805252075	12613544.082769405
0.9802037477493286	13622808.167914595
0.983986496925354	14617019.993721187
0.9877838492393494	15631647.371376283
0.9915955662727356	16587884.330835301
0.9954215884208679	17102898.1452732
0.9992615580558777	17082661.274109624
1.0031154155731201	17598205.42651358
1.0069829225540161	19053775.331186462
1.0108637809753418	20713076.828303676
1.0147579908370972	22296132.23994808
1.018665075302124	23763538.138106197
1.022585153579712	25115319.157613054
1.0265177488327026	26362167.11588379
1.0304628610610962	27643293.388094865
1.0344202518463135	29106294.137676194
1.0383895635604858	30640358.46039472
1.0423706769943237	32064700.809550423
1.0463634729385376	33321488.42413297
1.0503677129745483	34454589.21162684
1.0543830394744873	35539701.68955763
1.058409333229065	36553471.50778083
1.0624464750289917	37559627.31586159
1.0664942264556885	38552345.28024621
1.0705522298812866	39419494.75425294
1.0746204853057861	40305916.53208669
1.0786986351013184	41171889.64406383
1.0827864408493042	41474255.03253832
1.086883783340454	39951929.276072465
1.0909905433654785	35556858.066231765
1.0951062440872192	29288206.529042415
1.0992310047149658	23048614.01331218
1.10336434841156	17520740.484031606
1.1075061559677124	12887060.53916523
1.1116561889648438	9444370.082968444
1.115814208984375	7783070.530532702
1.1199802160263062	7980510.202568508
1.124153733253479	9396311.304476708
1.1283347606658936	10258848.78141619
1.1325229406356812	9068092.095840542
1.1367181539535522	8923641.187101724
1.1409201622009277	10786815.241880706
1.145128846168518	11841830.58264513
1.1493438482284546	11902078.230550444
1.1535650491714478	11127239.784326028
1.1577922105789185	10314832.120164176
1.1620250940322876	10238173.5795099
1.1662636995315552	10389090.993184667
1.170507550239563	11135452.020674417
1.174756646156311	12379171.739596097
1.1790107488632202	14591350.328510884
1.1832695007324219	18493058.854268696
1.1875330209732056	22607211.688344546
1.191800832748413	26307652.222189013
1.1960728168487549	29997363.28254147
1.2003488540649414	33336428.85754564
1.2046287059783936	36437651.442639165
1.2089121341705322	39240132.967910126
1.2131990194320679	41755338.5120086
1.2174891233444214	44335974.028875895
1.2217823266983032	46681327.049176015
1.2260783910751343	48879667.408449344
1.230377197265625	50957801.0527052
1.2346785068511963	52161723.96290541
1.238982081413269	51203433.079231545
1.2432878017425537	48863808.24549889
1.2475954294204712	46799090.601076275
1.2519049644470215	45314361.42666703
1.256216049194336	49410046.524458036
1.2605286836624146	57215809.20640068
1.2648425102233887	61292620.010217756
1.2691574096679688	62327034.26143792
1.2734732627868652	62157143.135700114
1.2777899503707886	61309910.47396319
1.2821072340011597	59472460.358138956
1.2864248752593994	56673841.070036545
1.2907428741455078	54266891.10377319
1.2950609922409058	52736178.56571444
1.2993791103363037	51272712.50009901
1.303696870803833	49677858.26847392
1.3080145120620728	47788455.6921996
1.3123314380645752	44622019.33798266
1.3166478872299194	41126820.3660073
1.3209635019302368	37397706.979811855
1.3252781629562378	30672718.454618335
1.3295916318893433	20544349.6237991
1.3339040279388428	10508721.321591135
1.3382149934768677	4354575.229182719
1.3425244092941284	2056092.4035791538
1.3468321561813354	1329621.548253713
1.3511382341384888	965277.473112812
1.3554422855377197	733362.2570214396
1.3597444295883179	719858.5139598415
1.3640443086624146	939408.2158130985
1.3683418035507202	1167125.5548228393
1.3726370334625244	1437273.1418775402
1.3769296407699585	1809267.3862763355
1.381219506263733	1761171.1315969166
1.3855066299438477	1414756.6821073277
1.3897908926010132	1272690.7725525107
1.3940720558166504	1223059.128092906
1.3983501195907593	1238051.0535910632
1.4026249647140503	1362313.5893286676
1.4068963527679443	1402383.8661914752
1.4111642837524414	1339727.0004420797
1.4154287576675415	1336308.6856081192
1.419689416885376	1357084.9761865907
1.4239463806152344	1466122.0420261174
1.4281994104385376	1794914.0223182319
1.4324485063552856	2091733.1042354337
1.436693549156189	2239101.8750123973
1.440934419631958	2455417.2935517957
1.4451709985733032	2861496.764163341
1.449403166770935	3575079.4556816183
1.453631043434143	4370647.991331337
1.4578542709350586	5032850.950626973
1.4620729684829712	5368077.289742443
1.4662868976593018	5297719.066672393
1.4704961776733398	5219277.186726176
1.4747005701065063	5505893.079865528
1.4788999557495117	5993769.850802057
1.4830944538116455	6369488.397891453
1.4872838258743286	6744195.872260699
1.491468071937561	7326968.5047439085
1.4956470727920532	8134827.41821707
1.4998208284378052	9082590.102529194
1.5039892196655273	9981576.027188623
1.5081522464752197	10657816.535088478
1.5123097896575928	11320519.513462473
1.5164618492126465	12300502.84820541
1.5206083059310913	13777088.774746038
1.5247491598129272	15300349.053120349
1.5288842916488647	16568263.235541197
1.5330137014389038	17886676.555590354
1.5371372699737549	19163223.97396111
1.541254997253418	20267469.9847804
1.545366883277893	21513029.268295854
1.5494728088378906	22686985.65995767
1.5535727739334106	23578526.5321161
1.5576666593551636	24701879.392736524
1.561754584312439	26424079.01838778
1.5658363103866577	28232984.70899623
1.5699119567871094	29315683.4101198
1.5739814043045044	29836823.041277703
1.5780447721481323	30399380.600300368
1.582101821899414	30928281.6851641
1.5861525535583496	31038439.642490182
1.5901970863342285	30604086.03699349
1.5942351818084717	29878284.75066437
1.5982669591903687	28967731.359760236
1.6022924184799194	27546099.65565433
1.606311559677124	25732485.95935664
1.6103241443634033	23840899.703415457
1.6143304109573364	21770775.42657993
1.6183301210403442	19768304.67699224
1.6223233938217163	18435465.532188136
1.6263102293014526	17733938.739693683
1.6302905082702637	17492928.20715127
1.634264349937439	18089378.34418496
1.638231635093689	19478226.596300703
1.6421923637390137	20353497.035168212
1.646146535873413	20110586.12752036
1.6500942707061768	20113931.407469176
1.6540353298187256	19892006.873092275
1.6579699516296387	19531201.94973189
1.661897897720337	18489148.24607527
1.6658192873001099	12636927.542837404
1.6697341203689575	8140782.839452805
1.6736423969268799	11248809.299362235
1.677544116973877	14997011.47847136
1.6814392805099487	15309921.531264454
1.6853278875350952	14267841.456477087
1.6892099380493164	13075963.536907159
1.6930854320526123	11814124.089081857
1.696954369544983	10647321.063718239
1.7008168697357178	9873043.731149046
1.7046726942062378	9854959.672380954
1.708522081375122	10704366.46510147
1.712364912033081	11556575.92572296
1.7162011861801147	12179219.84462428
1.7200311422348022	12657044.815011231
1.723854422569275	12313561.836027399
1.7276713848114014	11732239.83125573
1.731481909751892	11374012.916417485
1.7352858781814575	10989529.696122766
1.7390835285186768	10735108.874250304
1.7428747415542603	10598329.857684318
1.7466596364974976	10312375.735369772
1.7504380941390991	9723655.851824647
1.7542102336883545	8707215.62724077
1.7579760551452637	7776116.872095182
1.7617355585098267	7299735.037007451
1.7654887437820435	6696169.405827003
1.7692357301712036	5952162.853549296
1.7729763984680176	5354169.236313588
1.776710867881775	4931088.972789364
1.7804391384124756	4663663.09169341
1.7841613292694092	4207968.32234336
1.7878772020339966	3807232.9083705964
1.7915871143341064	3474681.8691864205
1.7952908277511597	3199457.0582989696
1.7989884614944458	3112135.6338842153
1.8026801347732544	2690232.792195356
1.806365728378296	2427358.1670931587
1.8100452423095703	2587814.4394519427
1.8137187957763672	2721984.1115752086
1.817386507987976	2549090.9269021866
1.8210482597351074	2577035.988776648
1.8247040510177612	2975152.6155667542
1.828354001045227	2738103.2540120664
1.8319982290267944	2251880.4545882638
1.8356364965438843	2057043.651958486
1.8392690420150757	2043818.7867024108
1.8428958654403687	2362547.424761174
1.8465168476104736	2489142.2693573292
1.8501322269439697	2396311.6876946283
1.8537418842315674	2292621.7219871758
1.8573459386825562	1964856.355936164
1.860944390296936	1658207.8737929992
1.864537239074707	1491945.8771937094
1.8681244850158691	1372321.7409093194
1.871706247329712	1511765.406933684
1.8752825260162354	2158004.9778564554
1.8788533210754395	3138126.8415636905
1.8824186325073242	3779813.811839447
1.8859784603118896	3808625.351894859
1.8895330429077148	3746653.383410215
1.8930821418762207	4181667.547394351
1.8966259956359863	4493040.329867333
1.9001644849777222	3909348.9786696015
1.9036977291107178	3377019.2622403293
1.9072256088256836	3509341.167479765
1.9107483625411987	3456793.727014346
1.9142658710479736	3167258.5045308773
1.9177782535552979	3199286.461736967
1.9212853908538818	3057086.3834883785
1.9247875213623047	2696229.04199029
1.9282845258712769	2426503.7537937425
1.9317764043807983	2216435.23765718
1.9352631568908691	2059022.8560740205
1.9387450218200684	1872856.9595862872
1.942221760749817	1994806.8139264984
1.9456936120986938	2293046.918818543
1.9491604566574097	2453324.509129899
1.952622413635254	2477518.467840745
1.956079363822937	2410633.739426846
1.959531545639038	2543221.9953765166
1.962978720664978	2808418.8493457264
1.966421127319336	3150237.991821328
1.9698586463928223	3334106.0870312485
1.9732913970947266	3291543.885096885
1.9767193794250488	3522494.5183470994
1.9801424741744995	3824560.180464163
1.9835609197616577	4205542.54029573
1.9869745969772339	4563166.9574337695
1.990383505821228	4530729.405665796
1.9937876462936401	4911046.99714185
1.9971871376037598	5482872.199316859
2.000581979751587	5765964.902962376
2.003972291946411	6079320.071700092
2.007357597351074	6139175.439954543
2.0107386112213135	6369256.947302514
2.0141148567199707	6766385.617014103
2.017486572265625	6729464.985414919
2.0208535194396973	7092142.296444368
2.0242159366607666	7781621.761683664
2.027573823928833	7872967.695951436
2.0309269428253174	8029461.821493214
2.034275770187378	8620318.063158251
2.0376198291778564	8964095.96859968
2.040959596633911	9027012.14479397
2.044294595718384	9429626.77143875
2.0476250648498535	10010309.902118174
2.0509510040283203	10150282.449952781
2.054272413253784	10266737.679677226
2.057589530944824	10782307.069220668
2.0609018802642822	11083935.800254423
2.0642096996307373	11128868.491068048
2.0675129890441895	11318789.616207791
2.0708119869232178	11479424.227009548
2.074106216430664	11531993.47627247
2.0773961544036865	11585097.11701112
2.080681324005127	11699302.998835266
2.0839622020721436	11805868.67045063
2.087238311767578	11864559.629901316
2.090510129928589	11919424.998113096
2.0937774181365967	11905354.025702778
2.0970399379730225	11833287.579502547
2.1002981662750244	11710735.144016605
2.1035518646240234	11566397.438652394
2.1068007946014404	11440916.632365502
2.1100454330444336	11335151.977539228
2.1132853031158447	11303211.284370579
2.116520881652832	11171987.449449494
2.1197516918182373	10987923.353417402
2.1229779720306396	10920086.699934853
2.12619948387146	10829626.38296939
2.1294167041778564	10671941.403777238
2.132629156112671	10546235.776698492
2.1358368396759033	10393779.617948512
2.139039993286133	10116716.19485343
2.1422386169433594	9680177.456542093
2.145432472229004	9244780.276171729
2.1486217975616455	9038504.415111724
2.151806354522705	8945535.521800216
2.1549863815307617	8833406.938629897
2.1581614017486572	8619519.054504758
2.16133189201355	8280456.67668315
2.1644976139068604	8002168.4256955385
2.167658567428589	7764880.998828386
2.1708147525787354	7529111.31482049
2.173966407775879	7288248.444463299
2.1771130561828613	6986437.323644085
2.1802549362182617	6705888.890348848
2.183391809463501	6387350.039480323
2.1865241527557373	6002921.381410884
2.1896514892578125	5496616.789325687
2.1927738189697266	4756240.790490437
2.1958916187286377	3769981.723983194
2.1990041732788086	2700937.412947016
2.2021119594573975	2019043.1657673246
2.2052149772644043	1955698.3298861363
2.208312749862671	2303714.1862537498
2.2114057540893555	2725988.059717256
2.214493751525879	3027220.042975897
2.217576742172241	3191205.2453611307
2.2206547260284424	3209442.6247963854
2.2237277030944824	3102714.3193427697
2.2267956733703613	2855260.213610173
2.2298583984375	2590052.0315784994
2.2329163551330566	2473997.2935174014
2.235969066619873	2416694.53207746
2.2390167713165283	2250599.238270866
2.2420592308044434	2039832.0027543656
2.2450966835021973	1885269.1458653072
2.248128890991211	1772614.429956432
2.2511560916900635	1709889.61580639
2.254178285598755	1664949.3285906552
2.257194995880127	1637241.5133605716
2.260206699371338	1629877.5398483954
2.2632133960723877	1644262.1255131972
2.266214609146118	1688101.4304863145
2.2692108154296875	1714500.956140407
2.2722020149230957	1718557.083288038
2.2751877307891846	1682405.387765519
2.278168201446533	1651850.6656307033
2.2811436653137207	1592735.074480937
2.284113883972168	1448238.0955776146
2.287078857421875	1346321.1766126703
2.290038824081421	1258604.1178322036
2.2929933071136475	1182045.5864079199
2.295942783355713	1207835.4883847756
2.298887014389038	1350219.6817124847
2.301826238632202	1543484.8129856877
2.304760217666626	1816366.350033881
2.3076889514923096	2345637.1424075947
2.310612440109253	2971258.219536781
2.3135311603546143	2977103.6897187564
2.3164443969726562	1976605.0617401379
2.319352865219116	1036278.6981268743
2.322256088256836	902238.1433805175
2.3251543045043945	987842.9143411204
2.328047275543213	1006448.623017563
2.330935478210449	1044699.0714533811
2.3338186740875244	1090158.6197767314
2.3366971015930176	1114356.1326326556
2.3395702838897705	1119500.0957672873
2.3424389362335205	1113450.0414788218
2.3453025817871094	1083689.7548622757
2.348161458969116	1094841.52929168
2.351015567779541	1190132.7966273385
2.353865146636963	1311743.344282097
2.3567099571228027	1449029.6791632734
2.3595502376556396	1689049.811997418
2.3623859882354736	1955450.4897182619
2.3652172088623047	2023993.3816267052
2.368043899536133	1709497.887973278
2.370866537094116	1124545.786317436
2.3736846446990967	883145.5569386756
2.3764986991882324	1037500.2494593071
2.3793084621429443	1141040.9958638612
2.3821144104003906	1145143.33004961
2.384916305541992	1273808.1861636697
2.387714147567749	1552838.353070101
2.3905084133148193	1690266.7958590363
2.393299102783203	1669265.0162003846
2.3960859775543213	1727814.7351418678
2.398869514465332	1945627.7489647798
2.4016497135162354	2154501.730587105
2.4044265747070312	2218876.1905181133
2.407200336456299	2192026.1808100757
2.409970998764038	2343066.958942197
2.4127390384674072	2621151.4570633983
2.415503978729248	2517872.353782128
2.418266534805298	2304255.42730928
2.4210267066955566	2406666.3970258627
2.4237842559814453	2399321.2076916355
2.426539897918701	2282453.5088001797
2.429293394088745	2514898.8023054437
2.4320452213287354	2792790.935168801
2.4347951412200928	2647802.3934510555
2.4375438690185547	2684416.60114387
2.440291166305542	3037192.8246443192
2.443037271499634	3008537.430177693
2.445782423019409	2779448.249061899
2.4485268592834473	2744451.7178656873
2.451270818710327	2701270.032481662
2.454014539718628	2721972.0956428936
2.4567582607269287	3010970.674177583
2.4595019817352295	3085116.0987531296
2.4622461795806885	3155128.2849556534
2.4649908542633057	3372024.6445007664
2.4677364826202393	3068060.0902223457
2.4704833030700684	2639248.08431211
2.473231554031372	2472120.1470948374
2.4759814739227295	2489071.806225469
2.4787333011627197	2599153.292105338
