#wavelength	surface flux
0.6450077295303345	16467.062607303567
0.6472567915916443	26593.06032019924
0.6494921445846558	36271.982208972884
0.6517150402069092	43813.23505645635
0.6539263725280762	52151.00715297454
0.6561272740364075	61497.28619015927
0.6583186388015747	71904.60147958793
0.6605015397071838	83342.23087310755
0.6626768708229065	95547.40355759345
0.6648455858230591	107630.04169808344
0.6670085787773132	113683.34650343897
0.6691668033599854	103722.63488884064
0.6713210344314575	101361.96003514607
0.6734722256660461	135744.18118812522
0.6756211519241333	177677.1539670682
0.6777685880661011	203312.64254468546
0.6799154281616211	222522.16314861627
0.6820623278617859	239699.17094653245
0.6842101216316223	255192.75704899206
0.6863595843315125	268586.0389872578
0.688511312007904	278640.2243895545
0.6906660795211792	282760.41457847384
0.6928245425224304	282837.21816588513
0.6949873566627502	286479.7172037207
0.6971551775932312	292107.0783682446
0.6993286609649658	291580.46928377094
0.7015084028244019	285368.9501010135
0.7036949396133423	277204.33279526216
0.7058889269828796	267495.0347177619
0.7080909013748169	255839.3446612989
0.710301399230957	242224.13597373138
0.712520956993103	226697.56737794974
0.7147500514984131	207531.89594381367
0.7169892191886902	185557.0137924905
0.7192389369010925	167467.7549128868
0.7214996814727783	153078.0534783615
0.723771870136261	137162.9447072557
0.7260559797286987	120761.29540512161
0.7283523678779602	106315.513227837
0.7306615710258484	93354.94726187263
0.7329838871955872	81574.14772510948
0.7353196740150452	70718.03590437271
0.7376693487167358	60036.38107956399
0.7400332689285278	50006.31771886317
0.7424117922782898	41022.97317830019
0.7448052167892456	33170.08148014995
0.7472138404846191	26365.79519643054
0.7496379613876343	20503.755727822583
0.7520779371261597	15598.571589425806
0.7545340061187744	11622.435286342887
0.7570064663887024	8468.722304849609
0.7594954967498779	5968.88466150887
0.7620013952255249	3887.0546221398386
0.7645244002342224	2111.336734976714
0.7670646905899048	1036.7751744119873
0.7696225643157959	1146.79802590192
0.7721980810165405	2656.3916162265023
0.7747915983200073	5286.582729317866
0.7774031162261963	8174.061851452822
0.7800329327583313	11890.638383089723
0.7826811671257019	18630.3552322101
0.7853479981422424	28271.308353094933
0.7880334854125977	39842.5837150832
0.7907378077507019	51121.828629970776
0.7934610247612	59400.84307927398
0.7962033748626709	78823.15442494083
0.7989648580551147	116479.73932753998
0.801745593547821	157433.30152791584
0.8045456409454346	198351.556841046
0.8073651194572449	242620.18976736313
0.8102040886878967	289106.2307284888
0.8130625486373901	341999.1338658826
0.8159406185150146	409328.7928914915
0.8188382983207703	490567.3623452269
0.8217556476593018	581247.5249247676
0.8246926665306091	688405.8809157315
0.8276493549346924	810871.6582548846
0.8306257724761963	939677.710521376
0.8336219191551208	1079976.7757606446
0.8366377949714661	1236126.1486306933
0.8396733403205872	1411092.2567271874
0.8427285552024841	1609865.7828239438
0.8458034992218018	1815656.0730005288
0.8488980531692505	1912720.8989123474
0.8520121574401855	1969226.8858709992
0.8551458716392517	2340441.9345137454
0.8582990765571594	2788608.195335912
0.8614717125892639	2872453.4019716913
0.8646637797355652	2894662.751569492
0.8678751587867737	3140050.591111534
0.8711057901382446	3438893.393188055
0.8743556141853333	3746224.845680192
0.87762451171875	4055334.701510559
0.8809124231338501	4209631.4402255425
0.8842192888259888	4282879.046596931
0.8875449895858765	4373195.682885404
0.8908893465995789	4204459.261375887
0.894252359867096	4008467.9358369363
0.8976338505744934	4789973.610625483
0.9010337591171265	6369765.326185878
0.9044519662857056	7827507.005045049
0.9078882932662964	8807933.509256631
0.9113426208496094	9315754.46143647
0.914814829826355	9632522.032037128
0.9183048605918884	10155889.873251598
0.9218124747276306	10544766.23435657
0.925337553024292	9203786.49088799
0.9288799166679382	6588118.357792315
0.9324395060539246	5412687.732213528
0.9360161423683167	6116785.366926328
0.9396095871925354	7411408.967288229
0.943219780921936	8332187.009291274
0.9468464851379395	8640317.177075433
0.9504896402359009	8780591.647610614
0.9541489481925964	8792156.09399187
0.9578243494033813	8595973.545009434
0.9615156054496765	8758204.191298187
0.9652225375175476	9695450.112295035
0.9689450263977051	10917906.287398845
0.9726828336715698	11806736.107553221
0.9764357805252075	12611506.090060595
0.9802037477493286	13511533.311895281
0.983986496925354	14339088.776849052
0.9877838492393494	15286105.13884504
0.9915955662727356	16210132.35551325
0.9954215884208679	16463661.087145997
0.9992615580558777	15611006.55265963
1.0031154155731201	15300109.32086814
1.0069829225540161	16618221.133402284
1.0108637809753418	18716244.04896439
1.0147579908370972	21374257.712397076
1.018665075302124	24349504.00536918
1.022585153579712	27008724.846882064
1.0265177488327026	29204020.65196241
1.0304628610610962	31689830.003944397
1.0344202518463135	34808775.24625156
1.0383895635604858	37809815.41422376
1.0423706769943237	40079680.20863902
1.0463634729385376	41643766.473214395
1.0503677129745483	42637431.10824542
1.0543830394744873	43604664.02270679
1.058409333229065	44912737.25062207
1.0624464750289917	46624663.29557682
1.0664942264556885	48525563.676254794
1.0705522298812866	50379179.73969433
1.0746204853057861	52542637.530548275
1.0786986351013184	54489245.10898351
1.0827864408493042	54772221.55074609
1.086883783340454	50530150.40422014
1.0909905433654785	40588872.712279454
1.0951062440872192	29621066.47118641
1.0992310047149658	22037198.67126904
1.10336434841156	16916105.87198774
1.1075061559677124	12794417.899210533
1.1116561889648438	9745974.374304056
1.115814208984375	8131028.668618425
1.1199802160263062	7830736.703440457
1.124153733253479	8400423.023943063
1.1283347606658936	8737953.543518627
1.1325229406356812	7509716.920874719
1.1367181539535522	6971851.7209957335
1.1409201622009277	8334604.325010551
1.145128846168518	9500678.070953378
1.1493438482284546	9709070.175802274
1.1535650491714478	9126596.458293734
1.1577922105789185	8679765.426111933
1.1620250940322876	8514754.696835686
1.1662636995315552	8371087.096866646
1.170507550239563	9063820.740808623
1.174756646156311	10190163.23938158
1.1790107488632202	11925125.59145098
1.1832695007324219	15061086.645515162
1.1875330209732056	18549586.337422326
1.191800832748413	22352128.213346615
1.1960728168487549	26624371.968787696
1.2003488540649414	30577220.348427694
1.2046287059783936	34741451.77780734
1.2089121341705322	38782172.51715158
1.2131990194320679	42403813.5872777
1.2174891233444214	46232977.19686827
1.2217823266983032	50057180.76319791
1.2260783910751343	54224035.98997434
1.230377197265625	58456267.59288943
1.2346785068511963	61586892.15660062
1.238982081413269	61720375.66587577
1.2432878017425537	59969520.14862895
1.2475954294204712	59227591.562798694
1.2519049644470215	58446905.23231214
1.256216049194336	64016764.999552846
1.2605286836624146	73014792.21973106
1.2648425102233887	75057466.33694702
1.2691574096679688	73591269.26291779
1.2734732627868652	71841890.72915387
1.2777899503707886	70125321.90492739
1.2821072340011597	67218986.56360528
1.2864248752593994	62249525.313249856
1.2907428741455078	58354744.02355861
1.2950609922409058	57044619.98879978
1.2993791103363037	55501457.17413208
1.303696870803833	52841112.35317323
1.3080145120620728	49541379.898672424
1.3123314380645752	44979078.65762699
1.3166478872299194	40760910.80892156
1.3209635019302368	37363571.92296721
1.3252781629562378	31328181.101955693
1.3295916318893433	20682524.545333847
1.3339040279388428	9930126.068978999
1.3382149934768677	4231862.469455523
1.3425244092941284	2393482.579490224
1.3468321561813354	1626038.4395282192
1.3511382341384888	1170320.2257947677
1.3554422855377197	909233.6885223349
1.3597444295883179	879362.3058547548
1.3640443086624146	1082740.3001010322
1.3683418035507202	1242372.3479746734
1.3726370334625244	1332982.6631889567
1.3769296407699585	1537896.88966252
1.381219506263733	1580039.7684245266
1.3855066299438477	1481201.9323919578
1.3897908926010132	1473912.365496474
1.3940720558166504	1430762.9487882117
1.3983501195907593	1369147.087378128
1.4026249647140503	1376509.0042761904
1.4068963527679443	1331018.0673487145
1.4111642837524414	1295524.0115633693
1.4154287576675415	1371047.1394274738
1.419689416885376	1374000.4721840823
1.4239463806152344	1370638.762354636
1.4281994104385376	1581569.3452441462
1.4324485063552856	1857939.7413824496
1.436693549156189	2041965.274324916
1.440934419631958	2206251.435026487
1.4451709985733032	2481532.906461644
1.449403166770935	3123124.8780918107
1.453631043434143	3927618.7407893064
1.4578542709350586	4450855.449195054
1.4620729684829712	4626654.511378927
1.4662868976593018	4600183.37008954
1.4704961776733398	4548740.50033538
1.4747005701065063	4774847.235403031
1.4788999557495117	5223059.98948844
1.4830944538116455	5542309.736930919
1.4872838258743286	5883994.835189329
1.491468071937561	6340229.436487041
1.4956470727920532	6869803.934674182
1.4998208284378052	7505654.544583558
1.5039892196655273	8163976.093164358
1.5081522464752197	8986576.99419322
1.5123097896575928	9956917.288182355
1.5164618492126465	10682585.656460414
1.5206083059310913	11466241.911379276
1.5247491598129272	12501887.83381637
1.5288842916488647	13571926.835571136
1.5330137014389038	14748127.694303116
1.5371372699737549	15737817.623988703
1.541254997253418	16603094.627925016
1.545366883277893	17940497.983754158
1.5494728088378906	19143059.57816196
1.5535727739334106	19563161.907987274
1.5576666593551636	20258634.37049642
1.561754584312439	22408690.792868435
1.5658363103866577	25122140.763255026
1.5699119567871094	26597899.105374455
1.5739814043045044	27146772.40223867
1.5780447721481323	27856230.529520366
1.582101821899414	28589741.025345698
1.5861525535583496	28818943.479629595
1.5901970863342285	28267035.71441074
1.5942351818084717	27407538.108197056
1.5982669591903687	26338000.31855922
1.6022924184799194	24378300.812433362
1.606311559677124	22075924.35518193
1.6103241443634033	20288775.3769646
1.6143304109573364	18350386.110913586
1.6183301210403442	16469153.58181539
1.6223233938217163	16115095.266344154
1.6263102293014526	16908794.431318324
1.6302905082702637	17771906.60534101
1.634264349937439	19305796.202737972
1.638231635093689	21714500.56963948
1.6421923637390137	22480724.50699181
1.646146535873413	20640492.613407392
1.6500942707061768	20009908.887825515
1.6540353298187256	19563083.575329687
1.6579699516296387	18026159.84717518
1.661897897720337	17259554.309621073
1.6658192873001099	11948200.583566228
1.6697341203689575	6131821.571469682
1.6736423969268799	7958373.330490138
1.677544116973877	11496575.358479535
1.6814392805099487	11739217.829510096
1.6853278875350952	10572978.680333093
1.6892099380493164	9223373.316418087
1.6930854320526123	7704782.578987857
1.696954369544983	6412603.483531397
1.7008168697357178	5731126.277984215
1.7046726942062378	5938858.921227326
1.708522081375122	7007612.195345884
1.712364912033081	7919536.58050827
1.7162011861801147	8478174.335778117
1.7200311422348022	8935586.571577638
1.723854422569275	8564025.696482817
1.7276713848114014	7849052.2349118395
1.731481909751892	7337422.797368907
1.7352858781814575	7130096.684312463
1.7390835285186768	7543405.595988414
1.7428747415542603	8147838.994728411
1.7466596364974976	8428456.342016924
1.7504380941390991	8254890.294168736
1.7542102336883545	7515228.083783775
1.7579760551452637	6720802.571565052
1.7617355585098267	6346262.610346686
1.7654887437820435	5953941.769719441
1.7692357301712036	5313771.542675162
1.7729763984680176	4800553.356836323
1.776710867881775	4768168.321220599
1.7804391384124756	4923590.88841
1.7841613292694092	4584813.361936918
1.7878772020339966	4079277.0693449345
1.7915871143341064	3557803.3737015687
1.7952908277511597	3318144.9333996214
1.7989884614944458	3461509.418035423
1.8026801347732544	3173660.2834715173
1.806365728378296	2958254.2202089513
1.8100452423095703	3156736.2256105808
1.8137187957763672	3383509.591408978
1.817386507987976	3191566.288905767
1.8210482597351074	3132717.3161517014
1.8247040510177612	3580216.885079499
1.828354001045227	3433804.9769223225
1.8319982290267944	2906632.519041943
1.8356364965438843	2596910.872645525
1.8392690420150757	2578555.0261633224
1.8428958654403687	2851178.194180256
1.8465168476104736	2857145.7635388505
1.8501322269439697	2747630.801971755
1.8537418842315674	2693005.1743812277
1.8573459386825562	2305301.4763087993
1.860944390296936	1910694.946282841
1.864537239074707	1790456.1067951352
1.8681244850158691	1773795.163040044
1.871706247329712	1964340.7349693375
1.8752825260162354	2527720.070755186
1.8788533210754395	3412438.944272225
1.8824186325073242	4157648.370998828
1.8859784603118896	4385865.5665981015
1.8895330429077148	4393115.977347146
1.8930821418762207	4756601.366149558
1.8966259956359863	5101666.892763812
1.9001644849777222	4726846.352313188
1.9036977291107178	4364871.060169302
1.9072256088256836	4650505.362023348
1.9107483625411987	4675224.724464228
1.9142658710479736	4401550.549196269
1.9177782535552979	4520311.354548598
1.9212853908538818	4415267.04473247
1.9247875213623047	4006981.4126791395
1.9282845258712769	3587114.4487586347
1.9317764043807983	3165102.7329286975
1.9352631568908691	2836482.4610128268
1.9387450218200684	2543756.7314880863
1.942221760749817	2702572.2558725006
1.9456936120986938	3102859.8583263643
1.9491604566574097	3299044.893698862
1.952622413635254	3289449.728101202
1.956079363822937	3142213.4167638863
1.959531545639038	3249482.422559809
1.962978720664978	3502967.7869734233
1.966421127319336	3822541.021837212
1.9698586463928223	4118228.255388844
1.9732913970947266	4138129.3587327055
1.9767193794250488	4273668.725063725
1.9801424741744995	4472865.318890535
1.9835609197616577	4713935.3034059
1.9869745969772339	5038067.072610941
1.990383505821228	5246471.706031924
1.9937876462936401	5850276.953750594
1.9971871376037598	6392780.422033323
2.000581979751587	6678321.987923504
2.003972291946411	6988665.389821294
2.007357597351074	7007671.43473691
2.0107386112213135	7354890.8470316
2.0141148567199707	7890738.9011942865
2.017486572265625	7975282.988682184
2.0208535194396973	8719478.589483153
2.0242159366607666	9764388.33573568
2.027573823928833	9743908.342231657
2.0309269428253174	9876095.997706521
2.034275770187378	10834437.019875547
2.0376198291778564	11403920.50500357
2.040959596633911	11427414.312394649
2.044294595718384	12050070.406431573
2.0476250648498535	13117546.465205973
2.0509510040283203	13310080.288815875
2.054272413253784	13324738.907047667
2.057589530944824	14331223.266101187
2.0609018802642822	14848707.605147908
2.0642096996307373	14774001.875943601
2.0675129890441895	15183419.931297943
2.0708119869232178	15426823.545288444
2.074106216430664	15412257.462528024
2.0773961544036865	15446535.86983584
2.080681324005127	15552340.515255863
2.0839622020721436	15605555.69042976
2.087238311767578	15665984.798510002
2.090510129928589	15865442.897272542
2.0937774181365967	15855024.498340629
2.0970399379730225	15606062.55419819
2.1002981662750244	15213122.337864138
2.1035518646240234	14809307.588122116
2.1068007946014404	14413775.335327433
2.1100454330444336	14019098.019243296
2.1132853031158447	13912663.445497256
2.116520881652832	13591346.59916573
2.1197516918182373	13142402.143888146
2.1229779720306396	13064749.448943019
2.12619948387146	12925653.166259434
2.1294167041778564	12583023.299237838
2.132629156112671	12386373.190532979
2.1358368396759033	12116878.020742485
2.139039993286133	11306768.155011076
2.1422386169433594	10047894.068667853
2.145432472229004	8954796.563330071
2.1486217975616455	8626050.539413279
2.151806354522705	8622569.68717815
2.1549863815307617	8429536.70576754
2.1581614017486572	8034274.282572115
2.16133189201355	7486062.466117618
2.1644976139068604	6978046.763256371
2.167658567428589	6495936.01508304
2.1708147525787354	6192175.292404642
2.173966407775879	5940069.336754521
2.1771130561828613	5516940.71258328
2.1802549362182617	5141981.713066537
2.183391809463501	4712959.92841485
2.1865241527557373	4184142.1810197816
2.1896514892578125	3595283.7405029666
2.1927738189697266	2888876.382703689
2.1958916187286377	2074898.6519568053
2.1990041732788086	1298325.627007092
2.2021119594573975	835802.1396831269
2.2052149772644043	710238.1950473596
2.208312749862671	807519.362162331
2.2114057540893555	1067011.6530269212
2.214493751525879	1374407.5225934666
2.217576742172241	1592959.2657469132
2.2206547260284424	1663445.01091784
2.2237277030944824	1599757.7525197512
2.2267956733703613	1455505.384328876
2.2298583984375	1314677.8305759884
2.2329163551330566	1225504.7142094427
2.235969066619873	1155448.6270840846
2.2390167713165283	1044925.3271737351
2.2420592308044434	924075.1515395768
2.2450966835021973	823840.1620649524
2.248128890991211	754485.3899555971
2.2511560916900635	721476.9092473161
2.254178285598755	703630.377533381
2.257194995880127	700825.394073753
2.260206699371338	708663.2285312659
2.2632133960723877	725931.0771038517
2.266214609146118	734232.719671466
2.2692108154296875	728470.5289814466
2.2722020149230957	721721.7211704917
2.2751877307891846	700260.3825543906
2.278168201446533	676248.2044837003
2.2811436653137207	632609.2674566145
2.284113883972168	550380.5640143713
2.287078857421875	479136.8945840686
2.290038824081421	427475.5787360477
2.2929933071136475	393747.88969961717
2.295942783355713	406409.6430206186
2.298887014389038	474315.43505456357
2.301826238632202	558115.7598737904
2.304760217666626	682803.3207665002
2.3076889514923096	949305.3024606024
2.310612440109253	1285223.3316414258
2.3135311603546143	1362159.149101578
2.3164443969726562	948335.8008577775
2.319352865219116	483723.8415286125
2.322256088256836	350244.9594510098
2.3251543045043945	332332.08206561295
2.328047275543213	329324.44882489485
2.330935478210449	370709.65869148594
2.3338186740875244	422088.5801060787
2.3366971015930176	465878.8337763361
2.3395702838897705	496866.67460547056
2.3424389362335205	496175.9125401694
2.3453025817871094	461211.5978882631
2.348161458969116	447511.6679196136
2.351015567779541	484329.00424911996
2.353865146636963	537911.1143421371
2.3567099571228027	596638.4976125672
2.3595502376556396	679548.9063690428
2.3623859882354736	779537.6089319134
2.3652172088623047	861261.7364282748
2.368043899536133	814950.6521898183
2.370866537094116	579041.4232149913
2.3736846446990967	423337.9726551515
2.3764986991882324	441607.348171744
2.3793084621429443	435780.7726614151
2.3821144104003906	406956.60833916895
2.384916305541992	480471.3319869522
2.387714147567749	643890.9748726989
2.3905084133148193	721442.3217687533
2.393299102783203	714969.3515662688
2.3960859775543213	759942.717353828
2.398869514465332	859842.7790139411
2.4016497135162354	973203.1263517034
2.4044265747070312	1096964.1386045285
2.407200336456299	1161687.8359489508
2.409970998764038	1202920.6861773957
2.4127390384674072	1285483.4385865633
2.415503978729248	1280944.5214648093
2.418266534805298	1216266.6541364533
2.4210267066955566	1177986.1872399247
2.4237842559814453	1074676.240344715
2.426539897918701	1013182.4725777677
2.429293394088745	1134211.027887004
2.4320452213287354	1261812.366794072
2.4347951412200928	1245243.4223626785
2.4375438690185547	1322469.1633787928
2.440291166305542	1511170.1284552356
2.443037271499634	1541942.5276682023
2.445782423019409	1493323.9726653842
2.4485268592834473	1495959.694981556
2.451270818710327	1517458.319478608
2.454014539718628	1587191.473327702
2.4567582607269287	1758272.038089976
2.4595019817352295	1869933.6135902775
2.4622461795806885	1992565.2463223983
2.4649908542633057	2162730.9147222075
2.4677364826202393	2042831.0170472292
2.4704833030700684	1826862.6103587523
2.473231554031372	1776570.7192586628
2.4759814739227295	1874844.7461875705
2.4787333011627197	1982265.5682177215
2.481487512588501	2005368.735212264
2.4842441082000732	2186910.4121953975
