#wavelength	surface flux
0.6450077295303345	318451.037847701
0.6472567915916443	505507.64820157294
0.6494921445846558	669022.4646007672
0.6517150402069092	781792.1540215486
0.6539263725280762	900086.7321399447
0.6561272740364075	1025103.074945468
0.6583186388015747	1157183.1408210245
0.6605015397071838	1292641.1377133045
0.6626768708229065	1419024.2603829931
0.6648455858230591	1505046.040580732
0.6670085787773132	1449297.4641013038
0.6691668033599854	1146788.3903513253
0.6713210344314575	995643.5853334942
0.6734722256660461	1428207.8644428847
0.6756211519241333	2015589.5259938473
0.6777685880661011	2359341.3814592254
0.6799154281616211	2576259.5211216244
0.6820623278617859	2769526.2721682563
0.6842101216316223	2947286.24910558
0.6863595843315125	3098861.564116599
0.688511312007904	3229657.1849187487
0.6906660795211792	3312419.4415428475
0.6928245425224304	3345672.380437358
0.6949873566627502	3413022.5623048977
0.6971551775932312	3512904.1825088193
0.6993286609649658	3546349.3126560794
0.7015084028244019	3511673.1916663437
0.7036949396133423	3418605.201168919
0.7058889269828796	3229949.5152347186
0.7080909013748169	3020263.3174311747
0.710301399230957	2862786.3174092053
0.712520956993103	2722026.1027377704
0.7147500514984131	2567990.218001305
0.7169892191886902	2411038.402935779
0.7192389369010925	2267330.075183332
0.7214996814727783	2120335.598836152
0.723771870136261	1954017.0950805028
0.7260559797286987	1777314.6703869314
0.7283523678779602	1599772.7625109241
0.7306615710258484	1423605.7104292798
0.7329838871955872	1252515.1966797959
0.7353196740150452	1088431.00955336
0.7376693487167358	931409.6736215401
0.7400332689285278	785453.9286272096
0.7424117922782898	652196.7432637602
0.7448052167892456	531901.407917472
0.7472138404846191	424257.52631258004
0.7496379613876343	328660.95112720976
0.7520779371261597	245201.46529948394
0.7545340061187744	174174.86280116392
0.7570064663887024	115794.24374851982
0.7594954967498779	70172.37546513099
0.7620013952255249	37045.22743867502
0.7645244002342224	15854.603194691605
0.7670646905899048	6163.495565435485
0.7696225643157959	6931.4346034000655
0.7721980810165405	20275.763682039582
0.7747915983200073	49651.83175907456
0.7774031162261963	89433.04830563023
0.7800329327583313	147124.72226697206
0.7826811671257019	251512.33589077904
0.7853479981422424	394860.8638102966
0.7880334854125977	556198.3269874494
0.7907378077507019	703448.979141498
0.7934610247612	799200.0342559589
0.7962033748626709	1025786.1151492995
0.7989648580551147	1469536.243073792
0.801745593547821	1933042.628377222
0.8045456409454346	2377024.689377909
0.8073651194572449	2860912.869001263
0.8102040886878967	3388579.4568598946
0.8130625486373901	3971431.206242493
0.8159406185150146	4554184.903472626
0.8188382983207703	5155440.004215815
0.8217556476593018	6054209.245142596
0.8246926665306091	7199458.5887812115
0.8276493549346924	8307585.367473889
0.8306257724761963	9419300.708085334
0.8336219191551208	10632829.542008778
0.8366377949714661	11949706.962093761
0.8396733403205872	13324905.278788919
0.8427285552024841	14558704.172210485
0.8458034992218018	15465494.116230141
0.8488980531692505	15560980.316986658
0.8520121574401855	15562574.627570542
0.8551458716392517	18087686.49014095
0.8582990765571594	20661545.831602976
0.8614717125892639	18956610.222237315
0.8646637797355652	16612294.837120688
0.8678751587867737	17158813.906043876
0.8711057901382446	18288362.595969863
0.8743556141853333	19689416.06155079
0.87762451171875	22094723.01731974
0.8809124231338501	24723855.766877078
0.8842192888259888	27442645.77515578
0.8875449895858765	29544213.902793325
0.8908893465995789	29606031.999964252
0.894252359867096	29349257.11347977
0.8976338505744934	34169076.48754811
0.9010337591171265	42155783.79163111
0.9044519662857056	48464449.61820137
0.9078882932662964	53830484.059791006
0.9113426208496094	59321834.491647825
0.914814829826355	64767225.91306565
0.9183048605918884	68930718.07074164
0.9218124747276306	68818457.68574917
0.925337553024292	61768097.67385572
0.9288799166679382	52055797.123362295
0.9324395060539246	49281692.488061965
0.9360161423683167	54644220.944145486
0.9396095871925354	62044393.48448606
0.943219780921936	67319065.11086945
0.9468464851379395	69772485.10729606
0.9504896402359009	70897971.63511507
0.9541489481925964	70698706.28451076
0.9578243494033813	69500788.17489885
0.9615156054496765	69859669.91587964
0.9652225375175476	73813266.5300912
0.9689450263977051	79758848.25949855
0.9726828336715698	84754123.90425505
0.9764357805252075	89916772.05922681
0.9802037477493286	96352655.7391798
0.983986496925354	102628984.64108312
0.9877838492393494	103722504.55688544
0.9915955662727356	95515808.99380277
0.9954215884208679	84448349.13469546
0.9992615580558777	71482489.70550759
1.0031154155731201	61982759.20556294
1.0069829225540161	63985494.41262032
1.0108637809753418	72035881.70167564
1.0147579908370972	81954695.22564031
1.018665075302124	92629547.53047425
1.022585153579712	101447056.79961997
1.0265177488327026	106477117.91962175
1.0304628610610962	113193355.12739226
1.0344202518463135	124711212.9886258
1.0383895635604858	135923727.29497147
1.0423706769943237	142552230.034673
1.0463634729385376	143998701.20663473
1.0503677129745483	141365200.42235756
1.0543830394744873	138892613.80563188
1.058409333229065	140515703.1826105
1.0624464750289917	146715465.6663841
1.0664942264556885	156159694.0200431
1.0705522298812866	167596089.50412586
1.0746204853057861	180956065.01744696
1.0786986351013184	194521630.23797226
1.0827864408493042	204816383.50616306
1.086883783340454	205255829.08209473
1.0909905433654785	190641935.8781622
1.0951062440872192	166717658.9515497
1.0992310047149658	143066164.1862339
1.10336434841156	121178589.3489963
1.1075061559677124	101801695.52066846
1.1116561889648438	88690032.33886853
1.115814208984375	83969175.00130083
1.1199802160263062	86194081.74870597
1.124153733253479	94165955.38323285
1.1283347606658936	97784113.84720011
1.1325229406356812	84782937.26299828
1.1367181539535522	71495613.34193802
1.1409201622009277	75524718.56476478
1.145128846168518	91879252.86853546
1.1493438482284546	105864396.6475647
1.1535650491714478	108173462.05990034
1.1577922105789185	106178385.885017
1.1620250940322876	102376741.17588393
1.1662636995315552	91129936.68484095
1.170507550239563	79931275.50866272
1.174756646156311	72939538.41755293
1.1790107488632202	73320754.01602782
1.1832695007324219	89411146.66104113
1.1875330209732056	110994547.87567696
1.191800832748413	127614495.82544725
1.1960728168487549	140463731.97175646
1.2003488540649414	152023320.63593864
1.2046287059783936	166104247.05116904
1.2089121341705322	180896706.0720256
1.2131990194320679	195130163.02171183
1.2174891233444214	209529460.06257254
1.2217823266983032	222492590.0314298
1.2260783910751343	236670433.2526206
1.230377197265625	249016254.23053133
1.2346785068511963	252949704.0802922
1.238982081413269	239060618.9542324
1.2432878017425537	216103826.82093844
1.2475954294204712	204237403.14812395
1.2519049644470215	197666031.52647308
1.256216049194336	220867909.50325444
1.2605286836624146	263938863.76787513
1.2648425102233887	283973399.64983475
1.2691574096679688	291551052.48595315
1.2734732627868652	294865593.7950087
1.2777899503707886	296146234.60907894
1.2821072340011597	294304582.86342764
1.2864248752593994	284298484.38043463
1.2907428741455078	275753520.03221613
1.2950609922409058	275394660.85731316
1.2993791103363037	275777112.78608716
1.303696870803833	273052385.2174547
1.3080145120620728	265983871.64926904
1.3123314380645752	254064412.8475726
1.3166478872299194	240108861.3935269
1.3209635019302368	221561979.8985901
1.3252781629562378	188915368.32694155
1.3295916318893433	135196665.89188555
1.3339040279388428	75062256.23613043
1.3382149934768677	37141463.31297703
1.3425244092941284	24356133.544240944
1.3468321561813354	20002164.00684855
1.3511382341384888	16763843.207292836
1.3554422855377197	14628411.045999149
1.3597444295883179	14828566.847698893
1.3640443086624146	17103207.652000338
1.3683418035507202	18636560.73368303
1.3726370334625244	19402319.974766683
1.3769296407699585	21466254.91873759
1.381219506263733	22414982.379092343
1.3855066299438477	21709448.80346978
1.3897908926010132	20974104.628568456
1.3940720558166504	19683923.902386855
1.3983501195907593	18801166.421110116
1.4026249647140503	19014847.887681488
1.4068963527679443	18359874.098289277
1.4111642837524414	17016308.64450449
1.4154287576675415	16746821.7143787
1.419689416885376	16545561.04118202
1.4239463806152344	16166797.16243267
1.4281994104385376	17021366.42422278
1.4324485063552856	18593108.17869725
1.436693549156189	19780818.867204018
1.440934419631958	20689220.29022013
1.4451709985733032	22047891.194365025
1.449403166770935	25307993.90834289
1.453631043434143	29356322.70599689
1.4578542709350586	32024838.638950486
1.4620729684829712	32941153.78040185
1.4662868976593018	32899249.725956008
1.4704961776733398	33261011.689613283
1.4747005701065063	34976861.74948301
1.4788999557495117	37347872.24481689
1.4830944538116455	39135048.8261862
1.4872838258743286	40846360.179060735
1.491468071937561	42620763.69578392
1.4956470727920532	44452088.83873743
1.4998208284378052	46909026.949488044
1.5039892196655273	50120109.14067993
1.5081522464752197	54128731.1812584
1.5123097896575928	58639000.611850716
1.5164618492126465	61937606.20715352
1.5206083059310913	64953208.35908366
1.5247491598129272	68540705.3681049
1.5288842916488647	72130000.48591727
1.5330137014389038	76692403.09720883
1.5371372699737549	80921446.39120078
1.541254997253418	84370395.61231098
1.545366883277893	89196814.62853017
1.5494728088378906	93840453.34591323
1.5535727739334106	95848658.37832299
1.5576666593551636	97321301.03106639
1.561754584312439	102934067.02944829
1.5658363103866577	111758455.62407853
1.5699119567871094	118097783.37514414
1.5739814043045044	121658792.13862409
1.5780447721481323	124441360.41968714
1.582101821899414	127745246.70585334
1.5861525535583496	131584017.76223251
1.5901970863342285	134031098.23746295
1.5942351818084717	135768630.5979564
1.5982669591903687	136971946.15979385
1.6022924184799194	135924080.46263266
1.606311559677124	133954149.90973611
1.6103241443634033	132969276.06193918
1.6143304109573364	131716085.19258721
1.6183301210403442	130016057.37631373
1.6223233938217163	130657458.41314185
1.6263102293014526	133183909.25790551
1.6302905082702637	135682320.4336284
1.634264349937439	139714267.07839417
1.638231635093689	145219645.8158982
1.6421923637390137	147723403.32015565
1.646146535873413	147251354.5884293
1.6500942707061768	147547506.13184765
1.6540353298187256	145279843.5398024
1.6579699516296387	142079615.12074453
1.661897897720337	135683733.11404008
1.6658192873001099	108876686.58312055
1.6697341203689575	89451801.68407853
1.6736423969268799	106504773.02050507
1.677544116973877	126829045.30856077
1.6814392805099487	129800223.87997267
1.6853278875350952	124025713.33304653
1.6892099380493164	115593064.95942639
1.6930854320526123	107115271.67194581
1.696954369544983	99340002.94120406
1.7008168697357178	94685981.24804161
1.7046726942062378	93253486.50038445
1.708522081375122	92470326.00082771
1.712364912033081	89544531.04590765
1.7162011861801147	85318116.47825262
1.7200311422348022	82881583.2836282
1.723854422569275	79862259.61419518
1.7276713848114014	75056416.11620782
1.731481909751892	70271029.75517526
1.7352858781814575	66398357.20665314
1.7390835285186768	64188030.071161605
1.7428747415542603	62407895.06914051
1.7466596364974976	59670645.73407829
1.7504380941390991	56657959.010195084
1.7542102336883545	52761196.667515054
1.7579760551452637	49232502.57509029
1.7617355585098267	47540280.79152894
1.7654887437820435	44858664.35635115
1.7692357301712036	40718538.164534226
1.7729763984680176	37365653.90768069
1.776710867881775	35360885.149141595
1.7804391384124756	34190529.565668195
1.7841613292694092	31955820.685065668
1.7878772020339966	29916959.596637167
1.7915871143341064	28378933.173498895
1.7952908277511597	27365997.372198172
1.7989884614944458	26869380.653485402
1.8026801347732544	24663840.67916972
1.806365728378296	23451557.78018195
1.8100452423095703	24250149.04828467
1.8137187957763672	25540845.72748754
1.817386507987976	24536587.411320247
1.8210482597351074	23399085.578547314
1.8247040510177612	25239319.289371826
1.828354001045227	25447943.891385
1.8319982290267944	23775569.81169777
1.8356364965438843	22669760.406881522
1.8392690420150757	22373060.219988372
1.8428958654403687	22190811.390785504
1.8465168476104736	21024641.442793485
1.8501322269439697	20491204.505952816
1.8537418842315674	19966560.37258636
1.8573459386825562	17439004.718062248
1.860944390296936	15449100.832168048
1.864537239074707	15673891.739454253
1.8681244850158691	16725811.258016234
1.871706247329712	18023205.57372462
1.8752825260162354	19825343.793904655
1.8788533210754395	22589565.83506112
1.8824186325073242	25604644.074603267
1.8859784603118896	27087835.400686663
1.8895330429077148	27166016.10593324
1.8930821418762207	28145512.138854288
1.8966259956359863	29893646.85844327
1.9001644849777222	30067790.2964367
1.9036977291107178	29446816.359799612
1.9072256088256836	30280919.09468659
1.9107483625411987	30633563.316833332
1.9142658710479736	30116721.611874018
1.9177782535552979	30325500.829042267
1.9212853908538818	29377464.46354739
1.9247875213623047	27935239.79343073
1.9282845258712769	26771025.252526533
1.9317764043807983	25063208.528550453
1.9352631568908691	23138828.266590744
1.9387450218200684	20920211.41157265
1.942221760749817	20953823.31385174
1.9456936120986938	22974345.407088947
1.9491604566574097	24145385.305830903
1.952622413635254	23873708.243614804
1.956079363822937	22746805.13805416
1.959531545639038	22775382.512412738
1.962978720664978	23484272.286280774
1.966421127319336	24687837.93922304
1.9698586463928223	25943159.114685927
1.9732913970947266	25552108.54473616
1.9767193794250488	25283578.475983765
1.9801424741744995	25724925.11984208
1.9835609197616577	26608606.2846622
1.9869745969772339	27632377.03176191
1.990383505821228	27707030.919376507
1.9937876462936401	29077989.99528229
1.9971871376037598	30479251.831101272
2.000581979751587	31269497.46198735
2.003972291946411	32680095.683447614
2.007357597351074	32673380.61798716
2.0107386112213135	33244520.172528718
2.0141148567199707	35286659.71969186
2.017486572265625	36134677.01009952
2.0208535194396973	38302540.72402276
2.0242159366607666	40937910.34166033
2.027573823928833	40372816.75513541
2.0309269428253174	40739088.3934624
2.034275770187378	43551870.72539539
2.0376198291778564	45248834.86911835
2.040959596633911	45619909.28231107
2.044294595718384	46911112.77045224
2.0476250648498535	49142303.37720055
2.0509510040283203	49773171.69693366
2.054272413253784	50129273.7662074
2.057589530944824	53091352.909759626
2.0609018802642822	54471698.97060964
2.0642096996307373	54144967.56441087
2.0675129890441895	55713243.87137368
2.0708119869232178	56618942.617717855
2.074106216430664	56397162.38841196
2.0773961544036865	56889237.80276222
2.080681324005127	57705929.93599896
2.0839622020721436	58246969.882292636
2.087238311767578	58933912.37101142
2.090510129928589	59955878.28592671
2.0937774181365967	60481986.16019525
2.0970399379730225	60584689.55768161
2.1002981662750244	60508065.93493309
2.1035518646240234	60223843.93379547
2.1068007946014404	59873868.15659815
2.1100454330444336	59778229.020993374
2.1132853031158447	60417636.83351433
2.116520881652832	60164182.87022226
2.1197516918182373	59569754.30834148
2.1229779720306396	60133937.43715439
2.12619948387146	60134115.06069916
2.1294167041778564	59231760.53809789
2.132629156112671	59131909.568635195
2.1358368396759033	59010873.4015126
2.139039993286133	57341770.66698413
2.1422386169433594	55229035.69661403
2.145432472229004	53848481.106422536
2.1486217975616455	53115487.88344706
2.151806354522705	52632493.181472555
2.1549863815307617	52348249.585262425
2.1581614017486572	51732396.40089984
2.16133189201355	50622761.7518186
2.1644976139068604	49609518.417306416
2.167658567428589	48463587.61256461
2.1708147525787354	47180207.74899798
2.173966407775879	45582907.30040568
2.1771130561828613	43631091.576551296
2.1802549362182617	42187102.86295025
2.183391809463501	40487991.670549646
2.1865241527557373	37963825.509698465
2.1896514892578125	35346553.11372795
2.1927738189697266	32323814.677953135
2.1958916187286377	27774373.502780158
2.1990041732788086	22254346.543854762
2.2021119594573975	17721950.880798407
2.2052149772644043	15184211.103444323
2.208312749862671	15243766.567724077
2.2114057540893555	17586598.167535137
2.214493751525879	20651493.387061037
2.217576742172241	22679898.015336182
2.2206547260284424	23319549.10662289
2.2237277030944824	23213590.985811155
2.2267956733703613	22218975.70889816
2.2298583984375	21085430.02402864
2.2329163551330566	20358057.51759105
2.235969066619873	19623652.563366212
2.2390167713165283	18779508.809534527
2.2420592308044434	17608804.22968513
2.2450966835021973	16432521.05515718
2.248128890991211	15839504.435623523
2.2511560916900635	15582734.11611705
2.254178285598755	15417677.359328767
2.257194995880127	15325120.846969692
2.260206699371338	15195638.519161891
2.2632133960723877	15145619.333671467
2.266214609146118	14923000.781434925
2.2692108154296875	14505619.264705468
2.2722020149230957	14281045.20668867
2.2751877307891846	14151926.559728593
2.278168201446533	13689385.104576074
2.2811436653137207	12736666.59060163
2.284113883972168	11716763.871527733
2.287078857421875	10988259.389746211
2.290038824081421	10089999.967747826
2.2929933071136475	9128188.249837078
2.295942783355713	8983687.355794087
2.298887014389038	9821507.417983508
2.301826238632202	10972054.021201659
2.304760217666626	12422150.396500837
2.3076889514923096	14767677.366074502
2.310612440109253	16914498.48031233
2.3135311603546143	16692689.466906438
2.3164443969726562	13123127.812130207
2.319352865219116	9282262.882026885
2.322256088256836	7736869.398845432
2.3251543045043945	7055813.489689464
2.328047275543213	6784041.609765737
2.330935478210449	7112783.581375616
2.3338186740875244	7573539.021038549
2.3366971015930176	8048239.716135356
2.3395702838897705	8539766.845487213
2.3424389362335205	8820067.197504792
2.3453025817871094	8807532.218039256
2.348161458969116	8847898.219940495
2.351015567779541	9147137.068066508
2.353865146636963	9784743.817287054
2.3567099571228027	10531395.920995777
2.3595502376556396	11184015.515259786
2.3623859882354736	11955537.78688201
2.3652172088623047	12700557.006295908
2.368043899536133	12114777.176207885
2.370866537094116	9627218.023250436
2.3736846446990967	8175789.669250855
2.3764986991882324	8339786.646232139
2.3793084621429443	7897761.417558875
2.3821144104003906	7190077.537032734
2.384916305541992	7701781.414445833
2.387714147567749	9366258.78691336
2.3905084133148193	10336649.142785223
2.393299102783203	10503190.686876066
2.3960859775543213	11098104.251693176
2.398869514465332	11984496.4817701
2.4016497135162354	12636463.963904455
2.4044265747070312	13305346.393678397
2.407200336456299	13559267.897362174
2.409970998764038	13559083.95081941
2.4127390384674072	14002553.539379187
2.415503978729248	14033375.418978786
2.418266534805298	13734590.538631538
2.4210267066955566	13674490.598214982
2.4237842559814453	13143237.13839821
2.426539897918701	12567562.288470805
2.429293394088745	13033280.57591913
2.4320452213287354	13715558.016744366
2.4347951412200928	13333186.401204333
2.4375438690185547	13515246.340335336
2.440291166305542	14487397.988098478
2.443037271499634	14187339.036487058
2.445782423019409	13513890.539241971
2.4485268592834473	13475509.716950478
2.451270818710327	13260624.258300927
2.454014539718628	13203567.653027788
2.4567582607269287	14347039.316234844
2.4595019817352295	14822605.535229133
2.4622461795806885	15076356.160268333
2.4649908542633057	15741161.723233394
2.4677364826202393	14521538.087380832
2.4704833030700684	13072676.5479346
2.473231554031372	12703309.782720271
2.4759814739227295	13177922.36596121
2.4787333011627197	13729990.35912607
