#wavelength	surface_flux
0.6450077295303345	1011231992.487045
0.6472567915916443	1523787195.7049737
0.6494921445846558	1844277505.623732
0.6517150402069092	2011097735.9136322
0.6539263725280762	2196781785.593658
0.6561272740364075	2303147279.594706
0.6583186388015747	2360554461.293944
0.6605015397071838	2399607383.77693
0.6626768708229065	2410754253.0620203
0.6648455858230591	2383700199.9610195
0.6670085787773132	2322044187.4225636
0.6691668033599854	2156330906.03893
0.6713210344314575	1868068884.9130359
0.6734722256660461	1623346678.0445676
0.6756211519241333	1446308477.870329
0.6777685880661011	1260178008.27088
0.6799154281616211	1090545211.0631871
0.6820623278617859	930360768.3047765
0.6842101216316223	751336613.3809536
0.6863595843315125	606288529.458625
0.688511312007904	536703538.3447533
0.6906660795211792	563342628.0132192
0.6928245425224304	721159464.5686905
0.6949873566627502	917151208.5985739
0.6971551775932312	1006770462.7008622
0.6993286609649658	1044308572.4434385
0.7015084028244019	1253178206.8089278
0.7036949396133423	1766359053.7208521
0.7058889269828796	2271493161.4147325
0.7080909013748169	2442036785.3147063
0.710301399230957	2428483404.7854743
0.712520956993103	2359159402.970237
0.7147500514984131	2301587787.786661
0.7169892191886902	2427463928.1466527
0.7192389369010925	2613921533.448987
0.7214996814727783	2721085769.447582
0.723771870136261	2826691525.6772485
0.7260559797286987	2901265845.638955
0.7283523678779602	2946231194.4013414
0.7306615710258484	2977079388.6879888
0.7329838871955872	2961507658.0202346
0.7353196740150452	2928452203.6160827
0.7376693487167358	2908960502.4653497
0.7400332689285278	2909463306.1763124
0.7424117922782898	2921242400.8412786
0.7448052167892456	2938692166.0517025
0.7472138404846191	2966571845.303305
0.7496379613876343	3001540791.82418
0.7520779371261597	3041105867.4644227
0.7545340061187744	3087457731.2840214
0.7570064663887024	3145516323.6409874
0.7594954967498779	3203278736.4157987
0.7620013952255249	3202697175.3485026
0.7645244002342224	2964672548.2844763
0.7670646905899048	2647751681.8287306
0.7696225643157959	2694386067.8343544
0.7721980810165405	3046018433.4829907
0.7747915983200073	3337777201.3788376
0.7774031162261963	3447901830.6203694
0.7800329327583313	3468011636.661054
0.7826811671257019	3470424477.601881
0.7853479981422424	3487544582.656224
0.7880334854125977	3522631910.060502
0.7907378077507019	3551769651.5753007
0.7934610247612	3577504664.673078
0.7962033748626709	3612140741.430239
0.7989648580551147	3645620526.6811447
0.801745593547821	3667652091.586188
0.8045456409454346	3681062054.8529186
0.8073651194572449	3694156556.735308
0.8102040886878967	3709327091.742735
0.8130625486373901	3710960352.862142
0.8159406185150146	3597893957.269849
0.8188382983207703	3401523856.6383214
0.8217556476593018	3461323216.7658005
0.8246926665306091	3685590559.5120754
0.8276493549346924	3762612131.500991
0.8306257724761963	3751064141.3641543
0.8336219191551208	3712077410.2241416
0.8366377949714661	3623980956.750504
0.8396733403205872	3511122395.068311
0.8427285552024841	3459440386.5823956
0.8458034992218018	3547524022.28387
0.8488980531692505	3675543074.352524
0.8520121574401855	3709016359.315117
0.8551458716392517	3729512702.907303
0.8582990765571594	3789772226.2641907
0.8614717125892639	3810254428.3565583
0.8646637797355652	3748516340.444361
0.8678751587867737	3676271692.813407
0.8711057901382446	3689286384.4368763
0.8743556141853333	3758482063.0852704
0.87762451171875	3796086033.23876
0.8809124231338501	3797898825.726394
0.8842192888259888	3806398043.816359
0.8875449895858765	3826181044.8585725
0.8908893465995789	3840928869.0084414
0.894252359867096	3859563143.821974
0.8976338505744934	3876052038.194109
0.9010337591171265	3885017219.314056
0.9044519662857056	3892668897.394781
0.9078882932662964	3901768503.901555
0.9113426208496094	3917084882.0054116
0.914814829826355	3934672097.830837
0.9183048605918884	3955359823.7895823
0.9218124747276306	3996407463.2475333
0.925337553024292	4031158261.9533596
0.9288799166679382	4031333689.956152
0.9324395060539246	4026546983.1021667
0.9360161423683167	4032380184.3905287
0.9396095871925354	4037695384.6844106
0.943219780921936	4041258897.0923
0.9468464851379395	4044710984.5195584
0.9504896402359009	4037300321.8247404
0.9541489481925964	4008031362.3931856
0.9578243494033813	3963295474.36782
0.9615156054496765	3867016525.4699206
0.9652225375175476	3741002708.2647314
0.9689450263977051	3690156940.9515705
0.9726828336715698	3717494303.7400794
0.9764357805252075	3765469798.3932467
0.9802037477493286	3845649880.503555
0.983986496925354	3940757343.2864327
0.9877838492393494	3907229460.1542883
0.9915955662727356	3752312274.5018973
0.9954215884208679	3692371454.654227
0.9992615580558777	3730640082.3378816
1.0031154155731201	3747461030.8284307
1.0069829225540161	3756302656.661032
1.0108637809753418	3773782278.5192904
1.0147579908370972	3778805718.0181603
1.018665075302124	3775612515.0385857
1.022585153579712	3767019070.4972863
1.0265177488327026	3737623911.283133
1.0304628610610962	3713043928.502186
1.0344202518463135	3705366259.086432
1.0383895635604858	3713137411.9872646
1.0423706769943237	3737311289.2468166
1.0463634729385376	3752112696.656924
1.0503677129745483	3750052193.2092524
1.0543830394744873	3750097101.626687
1.058409333229065	3748395480.937719
1.0624464750289917	3745997521.3267517
1.0664942264556885	3740982996.669802
1.0705522298812866	3736031046.807218
1.0746204853057861	3743098440.5203447
1.0786986351013184	3754244100.277312
1.0827864408493042	3761040977.6788754
1.086883783340454	3759086833.602867
1.0909905433654785	3750250537.196328
1.0951062440872192	3733838137.880866
1.0992310047149658	3715665536.0484166
1.10336434841156	3701329488.626027
1.1075061559677124	3687737694.430875
1.1116561889648438	3674360382.4099298
1.115814208984375	3666314761.411319
1.1199802160263062	3660177859.7441225
1.124153733253479	3654637929.384118
1.1283347606658936	3646358587.782655
1.1325229406356812	3613186588.046576
1.1367181539535522	3527825765.2134066
1.1409201622009277	3468068648.1420016
1.145128846168518	3520656581.8651447
1.1493438482284546	3582564540.3579793
1.1535650491714478	3583704766.9910283
1.1577922105789185	3564638103.27784
1.1620250940322876	3544598981.6261926
1.1662636995315552	3529331974.254757
1.170507550239563	3515538002.929296
1.174756646156311	3494875548.399083
1.1790107488632202	3472605262.422418
1.1832695007324219	3464900219.9744687
1.1875330209732056	3458450205.9966617
1.191800832748413	3445391323.368664
1.1960728168487549	3425893370.8658247
1.2003488540649414	3419400131.911379
1.2046287059783936	3433014181.7456317
1.2089121341705322	3435803199.2144513
1.2131990194320679	3429867381.5837383
1.2174891233444214	3423956581.3622513
1.2217823266983032	3415539081.1325393
1.2260783910751343	3406565114.069844
1.230377197265625	3396059768.1056576
1.2346785068511963	3382011425.041785
1.238982081413269	3363947147.5403566
1.2432878017425537	3346807991.3627915
1.2475954294204712	3336328055.313604
1.2519049644470215	3326109469.284894
1.256216049194336	3316876373.853105
1.2605286836624146	3308847607.9406457
1.2648425102233887	3297834279.287801
1.2691574096679688	3287292903.1734843
1.2734732627868652	3276332224.361784
1.2777899503707886	3258455293.9897323
1.2821072340011597	3230112272.100669
1.2864248752593994	3211362294.609241
1.2907428741455078	3209001573.1194406
1.2950609922409058	3205863385.2579355
1.2993791103363037	3196951849.9792876
1.303696870803833	3182275380.8775077
1.3080145120620728	3157222371.1397934
1.3123314380645752	3124665226.6056604
1.3166478872299194	3107378777.8676476
1.3209635019302368	3099807489.3670607
1.3252781629562378	3070756525.795444
1.3295916318893433	2990242304.0644507
1.3339040279388428	2841944985.5277514
1.3382149934768677	2705124051.2206173
1.3425244092941284	2643197002.3538685
1.3468321561813354	2618568135.7933817
1.3511382341384888	2600605274.499324
1.3554422855377197	2591456622.6477585
1.3597444295883179	2595628471.9871883
1.3640443086624146	2607249671.516448
1.3683418035507202	2619765421.38492
1.3726370334625244	2628374037.6522617
1.3769296407699585	2632320026.737104
1.381219506263733	2617621320.2191443
1.3855066299438477	2580096557.3119555
1.3897908926010132	2527022240.66788
1.3940720558166504	2474583310.549662
1.3983501195907593	2445382510.7965994
1.4026249647140503	2436523706.56693
1.4068963527679443	2415810557.2685356
1.4111642837524414	2368599238.7694416
1.4154287576675415	2326276460.888242
1.419689416885376	2301582083.129799
1.4239463806152344	2280656317.90253
1.4281994104385376	2267040728.0370865
1.4324485063552856	2264300572.8910527
1.436693549156189	2259378004.7823696
1.440934419631958	2251326423.485547
1.4451709985733032	2244467918.9093375
1.449403166770935	2238137964.9622865
1.453631043434143	2232891927.213841
1.4578542709350586	2224942297.2838993
1.4620729684829712	2208619350.4989142
1.4662868976593018	2185446066.103044
1.4704961776733398	2166200149.7209563
1.4747005701065063	2156107630.6626167
1.4788999557495117	2146521331.7181802
1.4830944538116455	2135957446.710091
1.4872838258743286	2127899142.41209
1.491468071937561	2119574179.8709135
1.4956470727920532	2112343903.649776
1.4998208284378052	2104089041.1707377
1.5039892196655273	2095145326.158402
1.5081522464752197	2087565748.3001196
1.5123097896575928	2078126203.745042
1.5164618492126465	2067307440.39821
1.5206083059310913	2059073915.9932904
1.5247491598129272	2048790869.2513175
1.5288842916488647	2035130245.6996038
1.5330137014389038	2022851315.0226612
1.5371372699737549	2011329578.3618813
1.541254997253418	1998020626.4276116
1.545366883277893	1986104186.7335184
1.5494728088378906	1976122792.7006333
1.5535727739334106	1963794680.3223968
1.5576666593551636	1951736377.6243668
1.561754584312439	1941241971.9070795
1.5658363103866577	1930671516.6943643
1.5699119567871094	1919323912.444116
1.5739814043045044	1908343920.3234584
1.5780447721481323	1897939184.7116551
1.582101821899414	1886595143.62098
1.5861525535583496	1873990211.3248138
1.5901970863342285	1860741104.5907676
1.5942351818084717	1848319716.8374832
1.5982669591903687	1836784429.2052903
1.6022924184799194	1823638506.4610019
1.606311559677124	1809752878.0810592
1.6103241443634033	1796155824.2546527
1.6143304109573364	1782661232.9866784
1.6183301210403442	1769158750.194604
1.6223233938217163	1755963898.3249557
1.6263102293014526	1743447878.9389875
1.6302905082702637	1730590325.2867892
1.634264349937439	1717501272.9214242
1.638231635093689	1704717894.187212
1.6421923637390137	1691819538.3962948
1.646146535873413	1678744823.1685047
1.6500942707061768	1665446925.2261517
1.6540353298187256	1652618251.5592792
1.6579699516296387	1639950948.3419516
1.661897897720337	1626923834.6928692
1.6658192873001099	1614520101.0969806
1.6697341203689575	1602715994.1017294
1.6736423969268799	1591249004.2934067
1.677544116973877	1579431119.0215533
1.6814392805099487	1566796028.5626538
1.6853278875350952	1553403655.6814954
1.6892099380493164	1539430723.3225648
1.6930854320526123	1525221136.9442003
1.696954369544983	1510799647.271291
1.7008168697357178	1496891076.169426
1.7046726942062378	1482530931.6507506
1.708522081375122	1466355565.1176257
1.712364912033081	1449295445.624117
1.7162011861801147	1431932767.8156466
1.7200311422348022	1416721001.559291
1.723854422569275	1403897855.9735322
1.7276713848114014	1389642493.878298
1.731481909751892	1373999278.714081
1.7352858781814575	1358452202.3167062
1.7390835285186768	1342871096.3743377
1.7428747415542603	1327870233.666799
1.7466596364974976	1313198388.031482
1.7504380941390991	1297599416.6778173
1.7542102336883545	1280308514.8603592
1.7579760551452637	1264339896.3314354
1.7617355585098267	1251703292.9589934
1.7654887437820435	1237287035.3645527
1.7692357301712036	1219856732.579031
1.7729763984680176	1204460588.6432967
1.776710867881775	1190926750.8656912
1.7804391384124756	1176423004.181259
1.7841613292694092	1160290421.5979192
1.7878772020339966	1147317945.2677093
1.7915871143341064	1138120873.8455203
1.7952908277511597	1127499797.3628595
1.7989884614944458	1113831667.7773776
1.8026801347732544	1101091657.995876
1.806365728378296	1093642430.6373467
1.8100452423095703	1087217025.0183423
1.8137187957763672	1081564867.5109723
1.817386507987976	1071328743.1464143
1.8210482597351074	1061229499.0100536
1.8247040510177612	1060744995.8743101
1.828354001045227	1057959289.1861781
1.8319982290267944	1050110233.7231996
1.8356364965438843	1041655346.4992436
1.8392690420150757	1032391402.897281
1.8428958654403687	1018417089.6154773
1.8465168476104736	1001658253.6461469
1.8501322269439697	992632363.3962309
1.8537418842315674	981161941.6374892
1.8573459386825562	958249729.0038302
1.860944390296936	947437673.9717289
1.864537239074707	956130360.4612288
1.8681244850158691	963359907.5881145
1.871706247329712	958819639.3281106
1.8752825260162354	951775543.3303496
1.8788533210754395	952702487.5499731
1.8824186325073242	958595265.4181093
1.8859784603118896	959501296.1820258
1.8895330429077148	952049355.0595996
1.8930821418762207	945572195.111952
1.8966259956359863	946512017.4573398
1.9001644849777222	947801246.9137471
1.9036977291107178	943413551.0415375
1.9072256088256836	937604278.6841607
1.9107483625411987	934105746.2565079
1.9142658710479736	931450319.7394406
1.9177782535552979	925274071.2118816
1.9212853908538818	916158265.179169
1.9247875213623047	908842644.6291153
1.9282845258712769	897137578.4109468
1.9317764043807983	883387030.5881288
1.9352631568908691	882460866.1793835
1.9387450218200684	879985526.8749228
1.942221760749817	864377815.8765802
1.9456936120986938	846926253.6630684
1.9491604566574097	841197530.2414755
1.952622413635254	844267183.1480763
1.956079363822937	846987254.573684
1.959531545639038	847688455.8546656
1.962978720664978	844377938.4012495
1.966421127319336	842423394.6081345
1.9698586463928223	837981930.5792788
1.9732913970947266	820714600.0651191
1.9767193794250488	792992448.2441453
1.9801424741744995	783753570.9663047
1.9835609197616577	794792882.8768181
1.9869745969772339	796104386.2016011
1.990383505821228	791441220.0166891
1.9937876462936401	792914298.1526968
1.9971871376037598	792439010.912686
2.000581979751587	789697390.8226793
2.003972291946411	789363304.1418861
2.007357597351074	784124154.3220475
2.0107386112213135	776278107.3238788
2.0141148567199707	774099723.4515351
2.017486572265625	772512614.335335
2.0208535194396973	770980625.2840401
2.0242159366607666	768880714.5484586
2.027573823928833	762057081.1457034
2.0309269428253174	759280200.9488624
2.034275770187378	760010195.4897927
2.0376198291778564	757315350.9898666
2.040959596633911	753969179.997697
2.044294595718384	750499943.5616553
2.0476250648498535	747429201.5455621
2.0509510040283203	745273367.4204216
2.054272413253784	742983139.7390351
2.057589530944824	741998107.1178321
2.0609018802642822	738487240.7927265
2.0642096996307373	732991505.0355077
2.0675129890441895	731912696.0668654
2.0708119869232178	730752566.6766169
2.074106216430664	726884838.6180836
2.0773961544036865	724647427.3417277
2.080681324005127	722533675.9196582
2.0839622020721436	719029355.6948216
2.087238311767578	715975985.6938419
2.090510129928589	714124144.109386
2.0937774181365967	711847683.4730766
2.0970399379730225	708351398.6964188
2.1002981662750244	705654744.0860163
2.1035518646240234	703411232.4414631
2.1068007946014404	700491742.7974293
2.1100454330444336	697646471.3757046
2.1132853031158447	695200381.7769014
2.116520881652832	692268676.0577358
2.1197516918182373	689432524.1091259
2.1229779720306396	687024009.9273918
2.12619948387146	683579443.7537626
2.1294167041778564	679970176.5168368
2.132629156112671	677673667.2211878
2.1358368396759033	675146473.8254739
2.139039993286133	671536910.3886511
2.1422386169433594	668824341.116089
2.145432472229004	666987479.4695574
2.1486217975616455	663630486.1245464
2.151806354522705	659819363.9662853
2.1549863815307617	657307614.4600387
2.1581614017486572	654886224.587103
2.16133189201355	651842451.1065233
2.1644976139068604	648886683.8367336
2.167658567428589	646279285.9522715
2.1708147525787354	643283450.3856968
2.173966407775879	639906758.506774
2.1771130561828613	636657142.0879194
2.1802549362182617	633782234.6272908
2.183391809463501	631138871.2579544
2.1865241527557373	628401860.2807431
2.1896514892578125	625623255.8733336
2.1927738189697266	622839298.2247014
2.1958916187286377	620154933.6425071
2.1990041732788086	617408357.9606128
2.2021119594573975	614305976.2238648
2.2052149772644043	611252084.5683376
2.208312749862671	608652014.2174667
2.2114057540893555	606312081.2175355
2.214493751525879	603815872.6850605
2.217576742172241	600874751.1716423
2.2206547260284424	598011917.148817
2.2237277030944824	595787436.2655872
2.2267956733703613	593384925.4226779
2.2298583984375	590650371.3112742
2.2329163551330566	587958922.9948508
2.235969066619873	585294927.3364688
2.2390167713165283	582977978.5830692
2.2420592308044434	580577922.7476299
2.2450966835021973	578076765.3010162
2.248128890991211	575645433.5646789
2.2511560916900635	573135329.1147604
2.254178285598755	570763346.5778025
2.257194995880127	568517843.7117653
2.260206699371338	566146106.9710293
2.2632133960723877	563571053.0494883
2.266214609146118	561285690.843894
2.2692108154296875	559100781.7982346
2.2722020149230957	556799379.5359522
2.2751877307891846	554786312.6199046
2.278168201446533	552479337.3662956
2.2811436653137207	549942242.9624672
2.284113883972168	547974480.5826589
2.287078857421875	546299989.9096496
2.290038824081421	543602543.8458955
2.2929933071136475	539248256.161469
2.295942783355713	535440315.66770524
2.298887014389038	533371960.11986333
2.301826238632202	531798737.6221312
2.304760217666626	530125601.86773515
2.3076889514923096	528164048.46535337
2.310612440109253	526070899.4319899
2.3135311603546143	523903513.14187956
2.3164443969726562	521899627.9845628
2.319352865219116	520028751.80688035
2.322256088256836	517219397.994554
2.3251543045043945	514487972.5905851
2.328047275543213	512732011.35605973
2.330935478210449	510991653.19333535
2.3338186740875244	509481217.4467075
2.3366971015930176	508011863.10650176
2.3395702838897705	505934235.51560324
2.3424389362335205	503701079.35436016
2.3453025817871094	502142589.17571723
2.348161458969116	501007886.13493484
2.351015567779541	498319830.7946419
2.353865146636963	495238828.86036605
2.3567099571228027	493311125.26014453
2.3595502376556396	491569041.2095787
2.3623859882354736	490753725.38979095
2.3652172088623047	489911232.185055
2.368043899536133	487974092.44850886
2.370866537094116	486828790.73046035
2.3736846446990967	485795934.3454327
2.3764986991882324	483514819.28614
2.3793084621429443	480980543.55735344
2.3821144104003906	478046898.4156228
2.384916305541992	474957751.1259561
2.387714147567749	473081282.356972
2.3905084133148193	472861945.15845865
2.393299102783203	472526112.0046974
2.3960859775543213	470796998.34691423
2.398869514465332	468235029.449665
2.4016497135162354	465161312.02076405
2.4044265747070312	462302003.87488323
2.407200336456299	459541980.6271979
2.409970998764038	456752744.29916924
2.4127390384674072	454383017.72551596
2.415503978729248	452510899.0288193
2.418266534805298	450449295.4039488
2.4210267066955566	447722821.0921327
2.4237842559814453	444887600.6257137
2.426539897918701	442220316.52784836
2.429293394088745	440358409.61467725
2.4320452213287354	438088551.81262153
2.4347951412200928	434091939.2761753
2.4375438690185547	431665934.42224485
2.440291166305542	430892328.61217606
2.443037271499634	427853917.9070802
2.445782423019409	425127961.42936313
2.4485268592834473	423654896.8102716
2.451270818710327	418512418.2805035
2.454014539718628	413550245.7929327
2.4567582607269287	416751199.0712585
2.4595019817352295	415036674.2259097
2.4622461795806885	410894782.41221
2.4649908542633057	412160863.1997039
2.4677364826202393	407744118.35954344
2.4704833030700684	403913292.6779915
2.473231554031372	399524812.1122758
2.4759814739227295	396482374.9502463
2.4787333011627197	397964255.08009595
2.481487512588501	396403899.23687094
