#wavelength	surface_flux
0.6450077295303345	890.2503837853093
0.6472567915916443	1402.2133065064927
0.6494921445846558	1828.5032540845443
0.6517150402069092	2107.201564487558
0.6539263725280762	2424.678973040655
0.6561272740364075	2775.9990038578544
0.6583186388015747	3162.235626987069
0.6605015397071838	3647.9665016589315
0.6626768708229065	4251.2470900296985
0.6648455858230591	4940.806013973075
0.6670085787773132	5697.098174686035
0.6691668033599854	6520.684887665255
0.6713210344314575	7456.637485167555
0.6734722256660461	8570.714286958546
0.6756211519241333	9787.851896094873
0.6777685880661011	10948.297972778955
0.6799154281616211	12048.806352239602
0.6820623278617859	12965.73918119744
0.6842101216316223	13533.179693876351
0.6863595843315125	13710.726901053937
0.688511312007904	13450.181968519504
0.6906660795211792	12762.828395668768
0.6928245425224304	12003.407315935281
0.6949873566627502	11722.054167377002
0.6971551775932312	11837.726376870809
0.6993286609649658	12256.658122672996
0.7015084028244019	13177.797949971864
0.7036949396133423	14192.203002497143
0.7058889269828796	14843.360343779543
0.7080909013748169	15193.879036533113
0.710301399230957	15590.547074349757
0.712520956993103	16108.864012640624
0.7147500514984131	16304.531775643087
0.7169892191886902	16055.6819970214
0.7192389369010925	15810.746980281132
0.7214996814727783	15788.034500634662
0.723771870136261	15732.196635170527
0.7260559797286987	15438.807060375866
0.7283523678779602	15041.322130820636
0.7306615710258484	14709.427891330086
0.7329838871955872	14416.070106760855
0.7353196740150452	14185.48057650683
0.7376693487167358	14040.62075902371
0.7400332689285278	13983.63854984999
0.7424117922782898	14275.229089410965
0.7448052167892456	15025.16952426592
0.7472138404846191	16150.479747479889
0.7496379613876343	17392.87842204639
0.7520779371261597	18158.547768333792
0.7545340061187744	17595.47692835766
0.7570064663887024	15482.840097499635
0.7594954967498779	12840.385403205515
0.7620013952255249	10481.261938644782
0.7645244002342224	8117.433186314524
0.7670646905899048	6349.643466139469
0.7696225643157959	6756.110266301952
0.7721980810165405	9528.388633392751
0.7747915983200073	13499.796418044796
0.7774031162261963	17112.35039471307
0.7800329327583313	19777.808720236597
0.7826811671257019	22616.999238126053
0.7853479981422424	25702.94174777
0.7880334854125977	28669.621171437422
0.7907378077507019	31880.304297105988
0.7934610247612	34800.01747866273
0.7962033748626709	39849.029775463976
0.7989648580551147	48752.77165815117
0.801745593547821	58525.905478042994
0.8045456409454346	68072.87414939643
0.8073651194572449	78488.85233047059
0.8102040886878967	89724.00659286228
0.8130625486373901	102277.55442103372
0.8159406185150146	118243.35074616928
0.8188382983207703	137782.66860712031
0.8217556476593018	159128.6501539392
0.8246926665306091	183801.54905209635
0.8276493549346924	211621.601563894
0.8306257724761963	240826.3772024876
0.8336219191551208	274782.45035107835
0.8366377949714661	315165.64509508543
0.8396733403205872	360744.88458752877
0.8427285552024841	412200.3862658476
0.8458034992218018	469161.18848411686
0.8488980531692505	516945.7560174293
0.8520121574401855	561814.0431315438
0.8551458716392517	656464.1475096275
0.8582990765571594	782692.9454400804
0.8614717125892639	895514.5259544797
0.8646637797355652	1011716.2163569279
0.8678751587867737	1142802.251540093
0.8711057901382446	1288878.902785165
0.8743556141853333	1448209.5361339438
0.87762451171875	1620522.3694752129
0.8809124231338501	1808737.6272191622
0.8842192888259888	2013258.159758784
0.8875449895858765	2198859.906327039
0.8908893465995789	2241395.022195937
0.894252359867096	2205235.4608457903
0.8976338505744934	2465344.9618718605
0.9010337591171265	2994522.577289261
0.9044519662857056	3475432.863315732
0.9078882932662964	3822939.264250635
0.9113426208496094	4089111.7591220434
0.914814829826355	4363705.951462222
0.9183048605918884	4738012.915979419
0.9218124747276306	5047949.545428124
0.925337553024292	4540622.833699384
0.9288799166679382	3273179.895394575
0.9324395060539246	2695483.725563353
0.9360161423683167	3358983.7428068807
0.9396095871925354	4475762.746677755
0.943219780921936	5102273.1938761305
0.9468464851379395	5159818.451524908
0.9504896402359009	5273636.170562573
0.9541489481925964	5480304.754934057
0.9578243494033813	5621855.670637878
0.9615156054496765	6082839.006679349
0.9652225375175476	7150313.384404954
0.9689450263977051	8441530.050440332
0.9726828336715698	9582170.84098592
0.9764357805252075	10736733.773692742
0.9802037477493286	12088862.656310087
0.983986496925354	13672073.901997777
0.9877838492393494	15665233.140656235
0.9915955662727356	17791969.392289955
0.9954215884208679	19574462.628721464
0.9992615580558777	21092181.91437408
1.0031154155731201	22748384.757518772
1.0069829225540161	24725797.70116301
1.0108637809753418	26863086.36348511
1.0147579908370972	28986185.543869324
1.018665075302124	30997197.83212035
1.022585153579712	32933427.717998177
1.0265177488327026	34880441.129041895
1.0304628610610962	36850064.73677611
1.0344202518463135	38794911.550845385
1.0383895635604858	40631258.34158734
1.0423706769943237	42303712.91761584
1.0463634729385376	43848237.54810829
1.0503677129745483	45309962.854687534
1.0543830394744873	46625941.68049603
1.058409333229065	47791129.42081213
1.0624464750289917	48971965.808942296
1.0664942264556885	50115840.52580114
1.0705522298812866	51121052.21391646
1.0746204853057861	52090419.89810174
1.0786986351013184	52970069.817195304
1.0827864408493042	52989237.8569951
1.086883783340454	49902255.51328469
1.0909905433654785	42069418.501461655
1.0951062440872192	31986143.19933508
1.0992310047149658	23514541.325436678
1.10336434841156	17212412.042499468
1.1075061559677124	12205423.583766552
1.1116561889648438	8256472.662366659
1.115814208984375	5886277.107054917
1.1199802160263062	4714763.935349247
1.124153733253479	3859882.500757328
1.1283347606658936	3503088.6875638044
1.1325229406356812	3208328.8382067177
1.1367181539535522	3623252.995246909
1.1409201622009277	4896644.868542872
1.145128846168518	4820658.655198206
1.1493438482284546	3304824.8861013083
1.1535650491714478	1927502.2781058094
1.1577922105789185	1405819.42393096
1.1620250940322876	1288712.01790674
1.1662636995315552	1385769.4273874618
1.170507550239563	2247444.343100776
1.174756646156311	3707750.331591751
1.1790107488632202	5864689.868687518
1.1832695007324219	8625806.97171843
1.1875330209732056	11645963.616723511
1.191800832748413	16568425.940138465
1.1960728168487549	23360566.413870424
1.2003488540649414	29948021.000063147
1.2046287059783936	36870347.959681794
1.2089121341705322	43965061.429548144
1.2131990194320679	50395625.268561766
1.2174891233444214	56543030.708636075
1.2217823266983032	61802581.14954175
1.2260783910751343	66168417.21977129
1.230377197265625	70208734.73609304
1.2346785068511963	73944141.26059254
1.238982081413269	75869518.22880077
1.2432878017425537	76061290.04758242
1.2475954294204712	77181754.69353919
1.2519049644470215	78084214.03859323
1.256216049194336	83277437.52947651
1.2605286836624146	91427708.69295369
1.2648425102233887	94010704.0024804
1.2691574096679688	92723766.69150318
1.2734732627868652	90453295.44530214
1.2777899503707886	87908420.3091284
1.2821072340011597	83647769.98994802
1.2864248752593994	77238071.24617426
1.2907428741455078	71819688.69453853
1.2950609922409058	68940286.1283094
1.2993791103363037	66307509.46139471
1.303696870803833	61372230.5630467
1.3080145120620728	52874628.723795265
1.3123314380645752	43504534.24930875
1.3166478872299194	39023408.55156907
1.3209635019302368	36893502.991797365
1.3252781629562378	28978611.558899745
1.3295916318893433	15856998.275451256
1.3339040279388428	5693596.004809121
1.3382149934768677	1812277.77397073
1.3425244092941284	847981.4845655484
1.3468321561813354	441323.6074783642
1.3511382341384888	277682.7536013677
1.3554422855377197	197917.5208137826
1.3597444295883179	177828.59779424156
1.3640443086624146	222295.4379274247
1.3683418035507202	262283.46126135445
1.3726370334625244	286524.3669688955
1.3769296407699585	338554.8941085741
1.381219506263733	340478.16618887155
1.3855066299438477	298676.05656260013
1.3897908926010132	300523.81750505435
1.3940720558166504	316035.7016813284
1.3983501195907593	308289.5043410496
1.4026249647140503	298841.4297509189
1.4068963527679443	303709.2135988959
1.4111642837524414	326808.7142848299
1.4154287576675415	375190.57428412215
1.419689416885376	410049.78055219015
1.4239463806152344	466352.1787980959
1.4281994104385376	644909.6993412864
1.4324485063552856	841884.8764773696
1.436693549156189	963168.6587446555
1.440934419631958	1121033.7669616253
1.4451709985733032	1397207.9054458998
1.449403166770935	1899232.7174666824
1.453631043434143	2483275.121343086
1.4578542709350586	2955413.6465644003
1.4620729684829712	3209932.300275509
1.4662868976593018	3191453.8512626686
1.4704961776733398	3100402.0606017793
1.4747005701065063	3325027.8947351365
1.4788999557495117	3786930.1537999804
1.4830944538116455	4171988.20830332
1.4872838258743286	4575619.397474504
1.491468071937561	5108112.625920758
1.4956470727920532	5789512.244836624
1.4998208284378052	6616191.692574741
1.5039892196655273	7528035.3750129575
1.5081522464752197	8429257.126765678
1.5123097896575928	9457235.04270051
1.5164618492126465	10669570.069120953
1.5206083059310913	12235386.550822472
1.5247491598129272	14200370.464686688
1.5288842916488647	16166093.037959099
1.5330137014389038	18304886.198358923
1.5371372699737549	20646164.533885494
1.541254997253418	23012384.387930516
1.545366883277893	25926992.10102256
1.5494728088378906	28852005.981253125
1.5535727739334106	31138123.47837015
1.5576666593551636	33098980.52801662
1.561754584312439	35169224.57948117
1.5658363103866577	37315492.18306592
1.5699119567871094	38650990.43214471
1.5739814043045044	38824626.96024002
1.5780447721481323	38017980.62917907
1.582101821899414	36759808.42109173
1.5861525535583496	35728176.264748685
1.5901970863342285	34444597.71054787
1.5942351818084717	32724528.602915738
1.5982669591903687	31127496.582209125
1.6022924184799194	28814197.84738534
1.606311559677124	25642088.609734137
1.6103241443634033	22665286.22604368
1.6143304109573364	19548386.5199206
1.6183301210403442	17107529.08442604
1.6223233938217163	18611590.849527847
1.6263102293014526	21344650.376215342
1.6302905082702637	20087098.928005602
1.634264349937439	17025910.127940215
1.638231635093689	15519933.217391841
1.6421923637390137	14806229.223632427
1.646146535873413	14244875.482722575
1.6500942707061768	15054714.298856929
1.6540353298187256	15269297.180426499
1.6579699516296387	13552854.522764979
1.661897897720337	12154329.95415562
1.6658192873001099	9710621.987411436
1.6697341203689575	7123574.402996235
1.6736423969268799	8344347.6502937935
1.677544116973877	11215642.001839854
1.6814392805099487	11180573.94012334
1.6853278875350952	8194413.048502076
1.6892099380493164	5726493.588320413
1.6930854320526123	4966791.349050497
1.696954369544983	4891878.8559414
1.7008168697357178	5338893.446318839
1.7046726942062378	6042644.391132233
1.708522081375122	6537726.94656762
1.712364912033081	7191248.0011440115
1.7162011861801147	8027582.147012275
1.7200311422348022	7752097.63250315
1.723854422569275	6513937.792895921
1.7276713848114014	6269897.532413682
1.731481909751892	6892788.871455444
1.7352858781814575	6926885.154046436
1.7390835285186768	6286398.384175579
1.7428747415542603	5576407.441669808
1.7466596364974976	5101590.864262452
1.7504380941390991	4970006.564625474
1.7542102336883545	4879370.422303495
1.7579760551452637	4904416.243837266
1.7617355585098267	4970117.199412978
1.7654887437820435	4496914.607878411
1.7692357301712036	3657314.232974534
1.7729763984680176	3023666.166596719
1.776710867881775	2758257.9837166388
1.7804391384124756	2662430.401076401
1.7841613292694092	2430931.9113742807
1.7878772020339966	2265062.1033186973
1.7915871143341064	2155718.529367803
1.7952908277511597	2048828.8524486267
1.7989884614944458	1991323.258228883
1.8026801347732544	1638622.0563310778
1.806365728378296	1412251.8654938939
1.8100452423095703	1580275.6402954934
1.8137187957763672	1797367.3603683566
1.817386507987976	1714205.4466751069
1.8210482597351074	1740140.60519792
1.8247040510177612	2039069.3369217215
1.828354001045227	1812209.302025449
1.8319982290267944	1385765.2756786954
1.8356364965438843	1200976.8712548045
1.8392690420150757	1165022.6759444892
1.8428958654403687	1342624.1445331355
1.8465168476104736	1398057.1064264684
1.8501322269439697	1380993.199658232
1.8537418842315674	1380688.3237632036
1.8573459386825562	1166604.8197673473
1.860944390296936	928898.9179091511
1.864537239074707	803106.5611622072
1.8681244850158691	733721.5867594524
1.871706247329712	831174.3021629152
1.8752825260162354	1247049.4049287732
1.8788533210754395	1904817.658142234
1.8824186325073242	2377090.5711637447
1.8859784603118896	2452076.4689990696
1.8895330429077148	2459319.777943153
1.8930821418762207	2890016.768471041
1.8966259956359863	3227126.174096207
1.9001644849777222	2751259.1479031336
1.9036977291107178	2334081.210648869
1.9072256088256836	2503812.2304976233
1.9107483625411987	2479020.1953167594
1.9142658710479736	2308213.7811353556
1.9177782535552979	2471905.647359438
1.9212853908538818	2383521.3460132573
1.9247875213623047	2005929.3927414806
1.9282845258712769	1717432.7328107788
1.9317764043807983	1508478.770563424
1.9352631568908691	1386581.1773028472
1.9387450218200684	1263711.3851115117
1.942221760749817	1348639.5386682185
1.9456936120986938	1565074.2863030138
1.9491604566574097	1709812.155479842
1.952622413635254	1752418.5441068283
1.956079363822937	1692635.8722119199
1.959531545639038	1768003.8179482794
1.962978720664978	1975428.4725363012
1.966421127319336	2272661.899424399
1.9698586463928223	2449346.2096804488
1.9732913970947266	2449850.3825060157
1.9767193794250488	2647089.7719349256
1.9801424741744995	2891090.363938635
1.9835609197616577	3192525.3503712816
1.9869745969772339	3408952.3742585364
1.990383505821228	3348495.271592336
1.9937876462936401	3706972.800078945
1.9971871376037598	4158582.6580870464
2.000581979751587	4375847.550314242
2.003972291946411	4675912.654944326
2.007357597351074	4775938.749812384
2.0107386112213135	5051542.346609263
2.0141148567199707	5420313.899080756
2.017486572265625	5370765.570945959
2.0208535194396973	5823502.042975526
2.0242159366607666	6545111.786701272
2.027573823928833	6532616.904375462
2.0309269428253174	6683955.934843238
2.034275770187378	7421433.5219033025
2.0376198291778564	7826861.046389698
2.040959596633911	7821894.410520442
2.044294595718384	8264525.073265677
2.0476250648498535	8925525.995530264
2.0509510040283203	8957430.43733653
2.054272413253784	9010248.895981343
2.057589530944824	9627514.499407692
2.0609018802642822	9900226.251440316
2.0642096996307373	9794489.91733303
2.0675129890441895	9865405.945835087
2.0708119869232178	9929422.025276292
2.074106216430664	9888596.430553203
2.0773961544036865	9855965.8740079
2.080681324005127	9941684.616243698
2.0839622020721436	10048727.224668277
2.087238311767578	10083904.295029793
2.090510129928589	10074625.761114022
2.0937774181365967	10016027.200381111
2.0970399379730225	9959143.196696922
2.1002981662750244	9829665.237983346
2.1035518646240234	9653355.548438597
2.1068007946014404	9598697.044117408
2.1100454330444336	9544963.466689734
2.1132853031158447	9405872.71412329
2.116520881652832	9204190.818045676
2.1197516918182373	9065118.295629615
2.1229779720306396	9043051.733812388
2.12619948387146	8960546.097319916
2.1294167041778564	8800523.404672716
2.132629156112671	8674396.160923952
2.1358368396759033	8526573.736950077
2.139039993286133	8285790.907608608
2.1422386169433594	7973370.85469362
2.145432472229004	7691614.928003704
2.1486217975616455	7556320.525876822
2.151806354522705	7491159.581217392
2.1549863815307617	7401256.962657242
2.1581614017486572	7248249.131014957
2.16133189201355	7046020.890160183
2.1644976139068604	6864008.1017039195
2.167658567428589	6675776.2919495925
2.1708147525787354	6511104.92722382
2.173966407775879	6365385.32014357
2.1771130561828613	6203657.375823522
2.1802549362182617	6039912.9220296955
2.183391809463501	5796588.484225293
2.1865241527557373	5476194.766652993
2.1896514892578125	5037260.328777275
2.1927738189697266	4418195.982516768
2.1958916187286377	3559836.553863022
2.1990041732788086	2598482.737830427
2.2021119594573975	1976453.1023010928
2.2052149772644043	1847076.3035358973
2.208312749862671	2066665.1422739353
2.2114057540893555	2431975.3573895507
2.214493751525879	2756566.1889106696
2.217576742172241	2929667.2820446636
2.2206547260284424	2909616.669218845
2.2237277030944824	2806518.1524720234
2.2267956733703613	2630534.2672504634
2.2298583984375	2432364.725110001
2.2329163551330566	2337330.1576023214
2.235969066619873	2270206.1038901675
2.2390167713165283	2098427.9261815324
2.2420592308044434	1893221.7554342414
2.2450966835021973	1754891.6656793368
2.248128890991211	1667388.3246104158
2.2511560916900635	1641418.7045097428
2.254178285598755	1639126.9480633207
2.257194995880127	1634679.7020177927
2.260206699371338	1637354.3748615133
2.2632133960723877	1653374.666050334
2.266214609146118	1677421.0983799694
2.2692108154296875	1680588.8907125827
2.2722020149230957	1679087.3192086353
2.2751877307891846	1653727.7628245824
2.278168201446533	1620535.1260244383
2.2811436653137207	1557503.5814161208
2.284113883972168	1424623.2339111555
2.287078857421875	1315581.8474197772
2.290038824081421	1206195.6037311244
2.2929933071136475	1115579.0332981308
2.295942783355713	1122199.9907477647
2.298887014389038	1229223.7784217997
2.301826238632202	1382818.5489828188
2.304760217666626	1579511.2826336676
2.3076889514923096	1921018.0400936923
2.310612440109253	2299988.2347735805
2.3135311603546143	2282489.65215301
2.3164443969726562	1582132.1603814014
2.319352865219116	906082.1768279409
2.322256088256836	807939.8240358132
2.3251543045043945	889472.950220454
2.328047275543213	934441.7633203933
2.330935478210449	966433.0992121234
2.3338186740875244	987111.1348698041
2.3366971015930176	1006044.8225801232
2.3395702838897705	1007470.8169356383
2.3424389362335205	999624.2678146287
2.3453025817871094	990576.5415557579
2.348161458969116	1001673.0046172515
2.351015567779541	1050926.5271465867
2.353865146636963	1132433.3963456866
2.3567099571228027	1257184.1126844247
2.3595502376556396	1444874.1514546145
2.3623859882354736	1620096.7461199216
2.3652172088623047	1673713.4788525214
2.368043899536133	1458080.6791551332
2.370866537094116	1003600.020983164
2.3736846446990967	817722.2653943945
2.3764986991882324	942422.8367397547
2.3793084621429443	1012283.6711281216
2.3821144104003906	1017415.8107193176
2.384916305541992	1113993.466001519
2.387714147567749	1328498.9451529728
2.3905084133148193	1475305.8095615406
2.393299102783203	1500658.8296660546
2.3960859775543213	1551684.7390072749
2.398869514465332	1698923.2205695733
2.4016497135162354	1838211.2417061916
2.4044265747070312	1886822.1314738193
2.407200336456299	1843996.535842153
2.409970998764038	1900175.212948605
2.4127390384674072	2041226.682048639
2.415503978729248	1945643.4854796128
2.418266534805298	1824952.496923443
2.4210267066955566	1949208.8801365683
2.4237842559814453	1987795.098724057
2.426539897918701	1917250.616008335
2.429293394088745	2063853.9575418667
2.4320452213287354	2204331.907087475
2.4347951412200928	2014427.8466132479
2.4375438690185547	2028747.6884759413
2.440291166305542	2318311.961495954
2.443037271499634	2250896.0393878403
2.445782423019409	2006262.2385954296
2.4485268592834473	1975960.1371620237
2.451270818710327	1932935.5395718901
2.454014539718628	1909113.7681586521
2.4567582607269287	2168729.1344190654
2.4595019817352295	2229007.6537626954
2.4622461795806885	2216996.8575162683
2.4649908542633057	2371768.501456874
2.4677364826202393	2127197.620237472
2.4704833030700684	1760817.030691902
2.473231554031372	1590825.0018345371
2.4759814739227295	1547987.7617359797
2.4787333011627197	1606712.3901687472
