#wavelength	surface_flux
0.6450077295303345	983719.6836454895
0.6472567915916443	1484528.8320701094
0.6494921445846558	1793614.2626928238
0.6517150402069092	1893487.2490522875
0.6539263725280762	1982210.9940377933
0.6561272740364075	2045441.8629181786
0.6583186388015747	2098790.6889594155
0.6605015397071838	2161284.503932922
0.6626768708229065	2222905.5003519263
0.6648455858230591	2280096.67210714
0.6670085787773132	2337857.3014550814
0.6691668033599854	2389693.346921842
0.6713210344314575	2444992.302456912
0.6734722256660461	2528664.5420614253
0.6756211519241333	2626384.685285162
0.6777685880661011	2715483.128573373
0.6799154281616211	2799126.248759691
0.6820623278617859	2882552.043807368
0.6842101216316223	2960546.1268499927
0.6863595843315125	3026356.9998651203
0.688511312007904	3085159.7502315873
0.6906660795211792	3161636.184961791
0.6928245425224304	3273927.267124384
0.6949873566627502	3410090.670756373
0.6971551775932312	3541606.3976624734
0.6993286609649658	3670100.933050932
0.7015084028244019	3844945.8529616077
0.7036949396133423	4039781.4880219703
0.7058889269828796	4101080.416575037
0.7080909013748169	4063393.0343688447
0.710301399230957	4093404.5213615564
0.712520956993103	4181642.2888719137
0.7147500514984131	4282900.989473627
0.7169892191886902	4405045.296067429
0.7192389369010925	4541095.360015097
0.7214996814727783	4686730.690607486
0.723771870136261	4870389.2006000355
0.7260559797286987	5085482.687019293
0.7283523678779602	5310841.982057563
0.7306615710258484	5553029.472021492
0.7329838871955872	5684846.308830971
0.7353196740150452	5626932.14720321
0.7376693487167358	5542837.434109346
0.7400332689285278	5480270.980595229
0.7424117922782898	5443829.82059551
0.7448052167892456	5479916.012018555
0.7472138404846191	5580684.925383583
0.7496379613876343	5730662.989011665
0.7520779371261597	5884727.188176163
0.7545340061187744	6037195.459919032
0.7570064663887024	6124649.215713927
0.7594954967498779	6024811.43754629
0.7620013952255249	5346243.003173643
0.7645244002342224	3495354.325221106
0.7670646905899048	1468919.3043349406
0.7696225643157959	1090230.6773176945
0.7721980810165405	2684589.8411902487
0.7747915983200073	5149347.863781968
0.7774031162261963	6837970.795557441
0.7800329327583313	7481219.526956646
0.7826811671257019	8147450.46642917
0.7853479981422424	8938610.246507341
0.7880334854125977	9474291.252266945
0.7907378077507019	9750080.66197548
0.7934610247612	9769480.035987442
0.7962033748626709	9990434.30680912
0.7989648580551147	10548654.588111935
0.801745593547821	11063432.414544035
0.8045456409454346	11538162.635902435
0.8073651194572449	12191922.808867393
0.8102040886878967	13071882.357720308
0.8130625486373901	14041154.560195789
0.8159406185150146	14761266.74053143
0.8188382983207703	14950241.136788383
0.8217556476593018	15129684.874202052
0.8246926665306091	15656918.34681468
0.8276493549346924	16016458.90174503
0.8306257724761963	16162268.361059003
0.8336219191551208	16432253.942346718
0.8366377949714661	16781607.282604214
0.8396733403205872	17087205.391353212
0.8427285552024841	17061292.095332205
0.8458034992218018	16712919.54325743
0.8488980531692505	16618008.758353358
0.8520121574401855	16783435.76416057
0.8551458716392517	17162646.635474846
0.8582990765571594	17581029.591634374
0.8614717125892639	17711935.329952534
0.8646637797355652	17836314.16980634
0.8678751587867737	18153925.99747587
0.8711057901382446	18731247.893042587
0.8743556141853333	19612917.670960687
0.87762451171875	20803653.619539306
0.8809124231338501	22191119.744037427
0.8842192888259888	23217668.034181852
0.8875449895858765	23527285.442705885
0.8908893465995789	23810297.855232317
0.894252359867096	24479325.363941286
0.8976338505744934	25607563.4440863
0.9010337591171265	27029740.047380414
0.9044519662857056	28246607.263039343
0.9078882932662964	29449036.507283017
0.9113426208496094	30760632.59982687
0.914814829826355	32063685.30443868
0.9183048605918884	32931933.383507766
0.9218124747276306	32514603.472407922
0.925337553024292	31277277.692126337
0.9288799166679382	30452989.928134747
0.9324395060539246	30675389.31645629
0.9360161423683167	31863409.134705182
0.9396095871925354	33309494.72692603
0.943219780921936	34535419.54825321
0.9468464851379395	35632692.4495394
0.9504896402359009	36751466.035670854
0.9541489481925964	37807744.0866821
0.9578243494033813	38798415.522150226
0.9615156054496765	39723218.24031502
0.9652225375175476	40732575.93145774
0.9689450263977051	41717173.59607601
0.9726828336715698	42211946.6616284
0.9764357805252075	42703685.60567482
0.9802037477493286	43654133.30789224
0.983986496925354	44758919.182292
0.9877838492393494	45243424.82396744
0.9915955662727356	44552619.136080824
0.9954215884208679	44395173.57691944
0.9992615580558777	45129829.37860608
1.0031154155731201	45733061.94656502
1.0069829225540161	46708835.166658856
1.0108637809753418	48183669.316929
1.0147579908370972	49573055.3098554
1.018665075302124	50854826.23673778
1.022585153579712	52025633.82026773
1.0265177488327026	52642959.528154664
1.0304628610610962	53448329.81813048
1.0344202518463135	54922966.579542086
1.0383895635604858	56441823.86065834
1.0423706769943237	57724309.370391235
1.0463634729385376	58828570.05990479
1.0503677129745483	59853076.29900307
1.0543830394744873	60937753.09394396
1.058409333229065	62168706.90753565
1.0624464750289917	63466348.46156777
1.0664942264556885	64651776.09750944
1.0705522298812866	66025679.49713223
1.0746204853057861	67796888.3381258
1.0786986351013184	69595493.66581789
1.0827864408493042	71110476.63958602
1.086883783340454	71979974.03226332
1.0909905433654785	72007610.12908639
1.0951062440872192	71338098.7300663
1.0992310047149658	70222004.61729465
1.10336434841156	68494567.31754272
1.1075061559677124	66784468.29809956
1.1116561889648438	66274572.01621798
1.115814208984375	66735541.16248157
1.1199802160263062	67764461.28689422
1.124153733253479	69609454.07638863
1.1283347606658936	70993285.71310623
1.1325229406356812	70315484.22429028
1.1367181539535522	69529494.67321113
1.1409201622009277	70875783.8375917
1.145128846168518	73734237.14118183
1.1493438482284546	76315864.00418419
1.1535650491714478	77427443.01965584
1.1577922105789185	77834096.31720291
1.1620250940322876	78168571.58901002
1.1662636995315552	77781250.2637171
1.170507550239563	77320340.6018685
1.174756646156311	77275442.05259146
1.1790107488632202	78106336.75372443
1.1832695007324219	80727859.73547614
1.1875330209732056	83331275.3686702
1.191800832748413	84836209.54045393
1.1960728168487549	85794473.79672398
1.2003488540649414	86793100.63136794
1.2046287059783936	88431990.96863693
1.2089121341705322	90055297.68613444
1.2131990194320679	91530265.30994296
1.2174891233444214	93052892.11339684
1.2217823266983032	94359494.34028071
1.2260783910751343	95747392.57123113
1.230377197265625	97006497.24290685
1.2346785068511963	97646390.93675415
1.238982081413269	97164063.49929889
1.2432878017425537	96197660.70685166
1.2475954294204712	96472222.60194772
1.2519049644470215	97136447.24403298
1.256216049194336	98201777.00605991
1.2605286836624146	99868284.96956706
1.2648425102233887	101041498.58091307
1.2691574096679688	102015657.70888913
1.2734732627868652	102881923.09418541
1.2777899503707886	103713855.17942199
1.2821072340011597	104316109.05014183
1.2864248752593994	104595466.42871037
1.2907428741455078	105199056.25482434
1.2950609922409058	106359941.17046563
1.2993791103363037	107537580.03535932
1.303696870803833	108320657.87445736
1.3080145120620728	108463813.00349383
1.3123314380645752	108138552.60421446
1.3166478872299194	107951752.88373402
1.3209635019302368	107433507.07442036
1.3252781629562378	105286969.9870324
1.3295916318893433	99615984.25164129
1.3339040279388428	89799713.07691707
1.3382149934768677	81030689.49124803
1.3425244092941284	76851978.51227212
1.3468321561813354	74493398.83351897
1.3511382341384888	72149248.80692895
1.3554422855377197	70451473.82906508
1.3597444295883179	70884689.00951979
1.3640443086624146	73063933.44691284
1.3683418035507202	74372727.0908118
1.3726370334625244	74784183.1434199
1.3769296407699585	76421947.92581105
1.381219506263733	77935671.03991318
1.3855066299438477	78365047.75069343
1.3897908926010132	78040328.98167911
1.3940720558166504	76731812.95161803
1.3983501195907593	75675421.52574337
1.4026249647140503	75647024.76579167
1.4068963527679443	75573983.63479663
1.4111642837524414	74571462.87622656
1.4154287576675415	73703262.59480815
1.419689416885376	73323341.88003638
1.4239463806152344	73066725.44153865
1.4281994104385376	73530717.08914723
1.4324485063552856	75063381.56232348
1.436693549156189	76813330.53894317
1.440934419631958	78159099.98890099
1.4451709985733032	79528798.67543034
1.449403166770935	81755317.26653321
1.453631043434143	84428898.03534159
1.4578542709350586	86525533.99873851
1.4620729684829712	87444769.10053632
1.4662868976593018	87686050.15275519
1.4704961776733398	88316623.28527763
1.4747005701065063	89573893.99159938
1.4788999557495117	90948380.92384486
1.4830944538116455	92135058.49025086
1.4872838258743286	93272736.10173835
1.491468071937561	94337877.2255254
1.4956470727920532	95627000.38477947
1.4998208284378052	97024629.55856663
1.5039892196655273	98431913.016927
1.5081522464752197	99919687.98444968
1.5123097896575928	101463947.70700599
1.5164618492126465	102906302.48949984
1.5206083059310913	104328079.69574797
1.5247491598129272	105741205.94237567
1.5288842916488647	106934892.44548884
1.5330137014389038	108139490.6812892
1.5371372699737549	109454978.48368146
1.541254997253418	110685977.01245043
1.545366883277893	111899332.211064
1.5494728088378906	113049601.38488497
1.5535727739334106	113892336.67881826
1.5576666593551636	114518182.2910018
1.561754584312439	115280278.48925586
1.5658363103866577	116308688.92053361
1.5699119567871094	117301161.7521371
1.5739814043045044	118123182.50834939
1.5780447721481323	118752488.44757216
1.582101821899414	119363456.17527595
1.5861525535583496	120065465.7315303
1.5901970863342285	120668575.81862073
1.5942351818084717	121211184.82105021
1.5982669591903687	121785731.851922
1.6022924184799194	122275081.2781794
1.606311559677124	122716263.2963658
1.6103241443634033	123121695.80298428
1.6143304109573364	123536606.20900522
1.6183301210403442	123974593.42601378
1.6223233938217163	124377440.01656467
1.6263102293014526	124708360.65839154
1.6302905082702637	124916407.65111688
1.634264349937439	125176218.07698293
1.638231635093689	125514115.69579579
1.6421923637390137	125774200.48973317
1.646146535873413	126001906.89971088
1.6500942707061768	126141319.22384468
1.6540353298187256	126256459.23135616
1.6579699516296387	126356409.89021127
1.661897897720337	126442064.22597063
1.6658192873001099	126674604.51181255
1.6697341203689575	126780616.45822592
1.6736423969268799	126860494.01093706
1.677544116973877	127168873.94587328
1.6814392805099487	127397709.50544743
1.6853278875350952	127258563.09880145
1.6892099380493164	126886190.97931089
1.6930854320526123	126461861.19777799
1.696954369544983	125990400.98318419
1.7008168697357178	125757776.30249457
1.7046726942062378	125496753.5945569
1.708522081375122	124719863.06714621
1.712364912033081	123535401.61783217
1.7162011861801147	122136503.40826511
1.7200311422348022	121090883.85507835
1.723854422569275	120375385.04066062
1.7276713848114014	119415704.20553985
1.731481909751892	118248642.07960558
1.7352858781814575	117079839.9265342
1.7390835285186768	115919840.4349137
1.7428747415542603	114671511.66851975
1.7466596364974976	113347578.17980203
1.7504380941390991	112191251.81144169
1.7542102336883545	110928191.59034516
1.7579760551452637	109645652.95511946
1.7617355585098267	108778609.22285631
1.7654887437820435	107594028.85577089
1.7692357301712036	105798393.80683945
1.7729763984680176	104068905.97780074
1.776710867881775	102669216.28414032
1.7804391384124756	101236957.58415428
1.7841613292694092	99431815.06156299
1.7878772020339966	98583498.32729879
1.7915871143341064	98283903.77924211
1.7952908277511597	97454932.45926236
1.7989884614944458	95833720.62269801
1.8026801347732544	93844342.40033321
1.806365728378296	92872615.37568432
1.8100452423095703	92541714.4000721
1.8137187957763672	93455766.06290694
1.817386507987976	93338109.34870397
1.8210482597351074	92261757.57302994
1.8247040510177612	92889365.49360092
1.828354001045227	92955320.17970465
1.8319982290267944	92364129.92268874
1.8356364965438843	91628782.93092231
1.8392690420150757	90590501.81564671
1.8428958654403687	89208352.45508088
1.8465168476104736	87097682.35737497
1.8501322269439697	86802186.70845915
1.8537418842315674	86524035.73290628
1.8573459386825562	82958712.61739986
1.860944390296936	80276202.31079695
1.864537239074707	81236155.30399904
1.8681244850158691	83781074.99959531
1.871706247329712	85698364.94978908
1.8752825260162354	86695661.0214393
1.8788533210754395	88699154.63193822
1.8824186325073242	91728459.81893177
1.8859784603118896	93575312.91916083
1.8895330429077148	93833745.64623575
1.8930821418762207	94377625.45282634
1.8966259956359863	96072809.83650428
1.9001644849777222	97188199.17167495
1.9036977291107178	97007353.92579602
1.9072256088256836	97084528.03779931
1.9107483625411987	97228500.56032826
1.9142658710479736	97234442.61069433
1.9177782535552979	97169979.4928696
1.9212853908538818	96009335.84352453
1.9247875213623047	94970313.49452813
1.9282845258712769	94578198.66924629
1.9317764043807983	93724048.95839497
1.9352631568908691	92274840.56720138
1.9387450218200684	89627773.40620601
1.942221760749817	88923488.4128617
1.9456936120986938	90766904.2618245
1.9491604566574097	91387679.36334924
1.952622413635254	90233694.63084953
1.956079363822937	88960754.93034706
1.959531545639038	89354253.30073749
1.962978720664978	90132095.12535177
1.966421127319336	91051783.07523017
1.9698586463928223	91670259.70364586
1.9732913970947266	90600290.05859937
1.9767193794250488	90131322.25697845
1.9801424741744995	90922530.72260498
1.9835609197616577	92119764.84697726
1.9869745969772339	92738119.1515242
1.990383505821228	91948867.269372
1.9937876462936401	92459374.49755014
1.9971871376037598	92912729.1219173
2.000581979751587	93082252.11311403
2.003972291946411	94786499.21825434
2.007357597351074	95161323.15491247
2.0107386112213135	95174039.54070398
2.0141148567199707	96274585.60259733
2.017486572265625	96719479.81717463
2.0208535194396973	98300066.91695566
2.0242159366607666	100124171.6792987
2.027573823928833	99555695.83098
2.0309269428253174	99978328.64599778
2.034275770187378	101991572.60070653
2.0376198291778564	102927923.08923581
2.040959596633911	103120873.69892424
2.044294595718384	103715676.55517662
2.0476250648498535	104752301.46856162
2.0509510040283203	105178934.02830721
2.054272413253784	105527961.86048336
2.057589530944824	107109708.80255298
2.0609018802642822	107736208.20271552
2.0642096996307373	107421017.56951009
2.0675129890441895	108371076.26668428
2.0708119869232178	109090060.31159124
2.074106216430664	109041278.28431013
2.0773961544036865	109471804.98563688
2.080681324005127	110001694.24473058
2.0839622020721436	110271162.35816573
2.087238311767578	110615151.78873928
2.090510129928589	111092170.42009208
2.0937774181365967	111365042.18285899
2.0970399379730225	111483725.89611161
2.1002981662750244	111745886.14750822
2.1035518646240234	111866128.38739476
2.1068007946014404	111896353.01153862
2.1100454330444336	112106675.02198456
2.1132853031158447	112426245.98871379
2.116520881652832	112390175.56123984
2.1197516918182373	112338711.73617129
2.1229779720306396	112702457.34976797
2.12619948387146	112768005.13582124
2.1294167041778564	112500432.60722604
2.132629156112671	112667045.40244214
2.1358368396759033	112902391.45534831
2.139039993286133	112595456.59336843
2.1422386169433594	112473339.61489679
2.145432472229004	112810230.4308499
2.1486217975616455	112758830.39250143
2.151806354522705	112409856.89019085
2.1549863815307617	112356749.98617697
2.1581614017486572	112418601.6624314
2.16133189201355	112375737.02048708
2.1644976139068604	112272577.55435093
2.167658567428589	112232895.96540624
2.1708147525787354	112101342.443023
2.173966407775879	111771509.7968282
2.1771130561828613	111432951.42042422
2.1802549362182617	111366451.50291146
2.183391809463501	111365996.98975992
2.1865241527557373	111181644.82338442
2.1896514892578125	111125508.77463308
2.1927738189697266	110968254.57003592
2.1958916187286377	110575726.53906937
2.1990041732788086	110257305.54255958
2.2021119594573975	109983341.74914822
2.2052149772644043	109872128.85913439
2.208312749862671	109927302.34409308
2.2114057540893555	109936162.33729337
2.214493751525879	109745696.1522126
2.217576742172241	109028953.69618542
2.2206547260284424	108353273.56115806
2.2237277030944824	108498047.08518897
2.2267956733703613	108631274.52457942
2.2298583984375	108506760.3330993
2.2329163551330566	108298905.21231541
2.235969066619873	107891125.3433279
2.2390167713165283	107694007.673039
2.2420592308044434	107325445.0689967
2.2450966835021973	106963730.56964059
2.248128890991211	106912791.67550385
2.2511560916900635	106821254.62080067
2.254178285598755	106663685.37069185
2.257194995880127	106609849.6634716
2.260206699371338	106569148.61509128
2.2632133960723877	105986401.18194653
2.266214609146118	105232568.51055802
2.2692108154296875	104795327.5619447
2.2722020149230957	104774384.79632272
2.2751877307891846	105156121.29630083
2.278168201446533	104891368.54454225
2.2811436653137207	104173031.97462311
2.284113883972168	104212468.25877278
2.287078857421875	104568551.07030115
2.290038824081421	103529590.17522714
2.2929933071136475	100111414.04198876
2.295942783355713	96902644.91331092
2.298887014389038	96156265.2351929
2.301826238632202	96720718.6765911
2.304760217666626	97228464.48208866
2.3076889514923096	96990304.87384272
2.310612440109253	96511235.1492567
2.3135311603546143	96288967.89271331
2.3164443969726562	96208283.7543039
2.319352865219116	96029673.43528482
2.322256088256836	94872006.1080661
2.3251543045043945	94168666.19944744
2.328047275543213	94373041.09071958
2.330935478210449	94281157.67624293
2.3338186740875244	94720487.2130943
2.3366971015930176	95116548.69601086
2.3395702838897705	94301559.10043038
2.3424389362335205	93528953.72786482
2.3453025817871094	94131797.93561651
2.348161458969116	94892135.58649474
2.351015567779541	93647382.09963019
2.353865146636963	92356969.91807988
2.3567099571228027	92279489.96288109
2.3595502376556396	91845220.81704435
2.3623859882354736	91806754.54065518
2.3652172088623047	91961163.19893445
2.368043899536133	91496925.36116767
2.370866537094116	91415613.75543278
2.3736846446990967	91997465.1036472
2.3764986991882324	91774642.657959
2.3793084621429443	90783124.54078335
2.3821144104003906	89560859.03896476
2.384916305541992	88060132.1989987
2.387714147567749	87912967.14429836
2.3905084133148193	89414823.16389714
2.393299102783203	89954674.77919228
2.3960859775543213	89426365.73240402
2.398869514465332	89170087.4084514
2.4016497135162354	88526830.04088412
2.4044265747070312	87752985.28504576
2.407200336456299	86549164.31295885
2.409970998764038	85332284.38250323
2.4127390384674072	84874564.27762513
2.415503978729248	84141662.87873232
2.418266534805298	83102598.82541005
2.4210267066955566	82779573.63824743
2.4237842559814453	82806106.38345753
2.426539897918701	82003597.1254862
2.429293394088745	81140730.03115372
2.4320452213287354	80104920.76422979
2.4347951412200928	78327447.98405404
2.4375438690185547	78366857.23206289
2.440291166305542	79513603.14258806
2.443037271499634	77924229.4090936
2.445782423019409	75562739.56233403
2.4485268592834473	75002648.17979112
2.451270818710327	73207853.18447115
2.454014539718628	71397137.93322568
2.4567582607269287	74302132.59849183
2.4595019817352295	74444304.59873714
2.4622461795806885	72576028.60751365
2.4649908542633057	73697021.63201997
2.4677364826202393	71711232.74141164
2.4704833030700684	68790494.14882411
2.473231554031372	66229128.90849971
2.4759814739227295	65326031.15700902
2.4787333011627197	66505110.151140414
2.481487512588501	66492875.9438325
2.4842441082000732	67833678.74971245
