#wavelength	surface_flux
0.6450077295303345	2391961627.9858227
0.6472567915916443	3592810304.5513425
0.6494921445846558	4315275757.2565565
0.6517150402069092	4585791208.366196
0.6539263725280762	4831930876.092665
0.6561272740364075	4946389930.788144
0.6583186388015747	5006759598.144374
0.6605015397071838	5054598890.335369
0.6626768708229065	5082891003.523292
0.6648455858230591	5078823699.243182
0.6670085787773132	5042814385.046445
0.6691668033599854	4904109760.214574
0.6713210344314575	4607843536.78976
0.6734722256660461	4304663731.636544
0.6756211519241333	4054086755.9787903
0.6777685880661011	3789840648.449778
0.6799154281616211	3523925277.766221
0.6820623278617859	3206867119.0697
0.6842101216316223	2814313191.346915
0.6863595843315125	2499609890.7034574
0.688511312007904	2365622584.500441
0.6906660795211792	2480752450.805862
0.6928245425224304	2877131070.8181057
0.6949873566627502	3278556973.9868746
0.6971551775932312	3419316466.2427216
0.6993286609649658	3464130654.926288
0.7015084028244019	3745596388.689419
0.7036949396133423	4384593978.802111
0.7058889269828796	5011377578.13739
0.7080909013748169	5255183895.008329
0.710301399230957	5266256018.098836
0.712520956993103	5182342476.095798
0.7147500514984131	5078140817.817351
0.7169892191886902	5179349063.551291
0.7192389369010925	5351007295.433361
0.7214996814727783	5432676202.51802
0.723771870136261	5526710495.050224
0.7260559797286987	5588811398.296747
0.7283523678779602	5627789270.220427
0.7306615710258484	5642121519.666712
0.7329838871955872	5597044995.737752
0.7353196740150452	5568077367.26394
0.7376693487167358	5578880807.87889
0.7400332689285278	5604197047.410026
0.7424117922782898	5633356648.556095
0.7448052167892456	5662588120.173289
0.7472138404846191	5703343715.3548975
0.7496379613876343	5753813482.862339
0.7520779371261597	5804046876.510484
0.7545340061187744	5852674697.661105
0.7570064663887024	5905306346.605424
0.7594954967498779	5953289178.344941
0.7620013952255249	5972735856.732617
0.7645244002342224	5864212337.781625
0.7670646905899048	5690934265.327242
0.7696225643157959	5705664822.037921
0.7721980810165405	5891657954.926482
0.7747915983200073	6047134548.726083
0.7774031162261963	6112219571.110113
0.7800329327583313	6125044777.031635
0.7826811671257019	6113387742.32687
0.7853479981422424	6113626787.67319
0.7880334854125977	6136759609.493993
0.7907378077507019	6156754021.600692
0.7934610247612	6173642918.825696
0.7962033748626709	6197535827.779424
0.7989648580551147	6220467908.934397
0.801745593547821	6234748129.254079
0.8045456409454346	6241420936.731063
0.8073651194572449	6248551215.57116
0.8102040886878967	6260655938.056866
0.8130625486373901	6261581851.8729315
0.8159406185150146	6157742650.343142
0.8188382983207703	5976063655.4672365
0.8217556476593018	6023033526.710656
0.8246926665306091	6217565185.8976
0.8276493549346924	6277661345.801509
0.8306257724761963	6250118672.823557
0.8336219191551208	6195163426.28
0.8366377949714661	6097019077.064811
0.8396733403205872	5978730174.281232
0.8427285552024841	5930666595.047803
0.8458034992218018	5998012975.434563
0.8488980531692505	6036796335.228744
0.8520121574401855	5933626192.078163
0.8551458716392517	5903955178.467554
0.8582990765571594	6081114498.108268
0.8614717125892639	6185513103.306161
0.8646637797355652	6038295043.687412
0.8678751587867737	5913051951.2600975
0.8711057901382446	6016960311.203429
0.8743556141853333	6155046492.294572
0.87762451171875	6172340278.247287
0.8809124231338501	6137053435.188767
0.8842192888259888	6143183772.488175
0.8875449895858765	6184262080.10404
0.8908893465995789	6198877198.609261
0.894252359867096	6199717318.636257
0.8976338505744934	6191820165.177888
0.9010337591171265	6179915774.777859
0.9044519662857056	6178136860.83473
0.9078882932662964	6176044363.571517
0.9113426208496094	6177304791.560103
0.914814829826355	6186773831.94818
0.9183048605918884	6193689210.706568
0.9218124747276306	6205088573.394258
0.925337553024292	6210647364.525369
0.9288799166679382	6198225334.051572
0.9324395060539246	6186097918.948222
0.9360161423683167	6179980534.369519
0.9396095871925354	6171543448.922617
0.943219780921936	6161545466.950737
0.9468464851379395	6153557780.19174
0.9504896402359009	6137807709.521873
0.9541489481925964	6102285159.240028
0.9578243494033813	6054673662.691166
0.9615156054496765	5966127000.881014
0.9652225375175476	5851200870.767104
0.9689450263977051	5796797360.117201
0.9726828336715698	5807669537.216684
0.9764357805252075	5836050240.151544
0.9802037477493286	5892661844.021625
0.983986496925354	5966106219.023487
0.9877838492393494	5945626033.600594
0.9915955662727356	5834994779.949436
0.9954215884208679	5786362453.749896
0.9992615580558777	5801458900.757035
1.0031154155731201	5799755130.865014
1.0069829225540161	5793588678.838454
1.0108637809753418	5795704450.923075
1.0147579908370972	5788243608.503036
1.018665075302124	5773175045.1240225
1.022585153579712	5754522330.901543
1.0265177488327026	5721295028.420008
1.0304628610610962	5682660403.483963
1.0344202518463135	5650266101.198932
1.0383895635604858	5647211112.443234
1.0423706769943237	5666970073.211731
1.0463634729385376	5670206502.796432
1.0503677129745483	5656341321.933347
1.0543830394744873	5644478676.133479
1.058409333229065	5629993723.845531
1.0624464750289917	5614877924.43699
1.0664942264556885	5597544500.71043
1.0705522298812866	5579245628.453655
1.0746204853057861	5571172997.714756
1.0786986351013184	5567154808.440252
1.0827864408493042	5560337066.842719
1.086883783340454	5547423303.823883
1.0909905433654785	5529707305.6695795
1.0951062440872192	5506316013.823197
1.0992310047149658	5481444354.048736
1.10336434841156	5459431323.576536
1.1075061559677124	5438141809.427416
1.1116561889648438	5416435134.836734
1.115814208984375	5397735118.625974
1.1199802160263062	5378289948.786478
1.124153733253479	5356560863.253187
1.1283347606658936	5336562793.635043
1.1325229406356812	5303044340.804381
1.1367181539535522	5225430473.816179
1.1409201622009277	5162304065.999076
1.145128846168518	5188338857.119971
1.1493438482284546	5225995538.782347
1.1535650491714478	5215610885.768793
1.1577922105789185	5182301664.881482
1.1620250940322876	5147913162.406933
1.1662636995315552	5127725765.554717
1.170507550239563	5113163116.231451
1.174756646156311	5088922033.043151
1.1790107488632202	5048445063.160136
1.1832695007324219	5010892198.383193
1.1875330209732056	4992470278.131213
1.191800832748413	4980586481.380155
1.1960728168487549	4955219495.050844
1.2003488540649414	4942548197.733642
1.2046287059783936	4950816798.797329
1.2089121341705322	4945018279.181181
1.2131990194320679	4931735348.553094
1.2174891233444214	4918833387.856097
1.2217823266983032	4902099069.339939
1.2260783910751343	4884266564.176367
1.230377197265625	4865155763.824696
1.2346785068511963	4843722169.929123
1.238982081413269	4819479885.35653
1.2432878017425537	4795923640.225285
1.2475954294204712	4777217559.060076
1.2519049644470215	4758965400.189755
1.256216049194336	4741194457.557717
1.2605286836624146	4724132908.83085
1.2648425102233887	4705393835.868489
1.2691574096679688	4687391399.779345
1.2734732627868652	4669273604.267866
1.2777899503707886	4642994190.540291
1.2821072340011597	4604033757.24049
1.2864248752593994	4577450869.93869
1.2907428741455078	4570864461.317422
1.2950609922409058	4565235758.246758
1.2993791103363037	4553387159.141906
1.303696870803833	4533040090.217551
1.3080145120620728	4494015280.391141
1.3123314380645752	4436625848.866296
1.3166478872299194	4415134003.970735
1.3209635019302368	4426634587.673408
1.3252781629562378	4408636204.488555
1.3295916318893433	4340126607.678764
1.3339040279388428	4226924131.6722608
1.3382149934768677	4129343056.6695623
1.3425244092941284	4084273763.568304
1.3468321561813354	4064340802.7734933
1.3511382341384888	4049056412.077788
1.3554422855377197	4035974812.4286246
1.3597444295883179	4024467510.340913
1.3640443086624146	4015867950.3812623
1.3683418035507202	4015850899.9413266
1.3726370334625244	4016610362.102812
1.3769296407699585	4012230241.333039
1.381219506263733	3994701086.351479
1.3855066299438477	3955873336.802621
1.3897908926010132	3896569158.6820545
1.3940720558166504	3841660849.0288224
1.3983501195907593	3815246442.956505
1.4026249647140503	3806658068.316217
1.4068963527679443	3786323252.2721972
1.4111642837524414	3742823487.4928308
1.4154287576675415	3701735472.8971
1.419689416885376	3675473709.0536976
1.4239463806152344	3652847928.5739217
1.4281994104385376	3637343842.63575
1.4324485063552856	3631907519.057673
1.436693549156189	3622925728.6921535
1.440934419631958	3611342043.9057894
1.4451709985733032	3600837629.636345
1.449403166770935	3588405865.7868505
1.453631043434143	3574686493.8384795
1.4578542709350586	3554558987.0889997
1.4620729684829712	3525819073.861348
1.4662868976593018	3496622613.9100666
1.4704961776733398	3475888807.534591
1.4747005701065063	3463954901.018665
1.4788999557495117	3451414548.363712
1.4830944538116455	3438438296.289716
1.4872838258743286	3426679987.8667316
1.491468071937561	3418948210.5571494
1.4956470727920532	3414780729.2286725
1.4998208284378052	3389603429.7492423
1.5039892196655273	3360296094.398033
1.5081522464752197	3365139996.392722
1.5123097896575928	3373447594.0428095
1.5164618492126465	3365559951.0446973
1.5206083059310913	3360246968.713654
1.5247491598129272	3347741235.76682
1.5288842916488647	3328795341.3181677
1.5330137014389038	3314740704.6112723
1.5371372699737549	3299233350.895886
1.541254997253418	3279278816.1948457
1.545366883277893	3268993006.554076
1.5494728088378906	3263498038.927228
1.5535727739334106	3247705079.185068
1.5576666593551636	3234695719.332764
1.561754584312439	3229906706.180433
1.5658363103866577	3222982624.0262814
1.5699119567871094	3209680943.354309
1.5739814043045044	3195405122.2971864
1.5780447721481323	3189487820.762214
1.582101821899414	3186528670.349826
1.5861525535583496	3173567161.771269
1.5901970863342285	3155846554.197266
1.5942351818084717	3148502174.153081
1.5982669591903687	3144416867.7672963
1.6022924184799194	3127906272.173511
1.606311559677124	3107212216.495501
1.6103241443634033	3093183784.005176
1.6143304109573364	3077797808.817865
1.6183301210403442	3056098384.117366
1.6223233938217163	3039581901.9603167
1.6263102293014526	3032356451.350181
1.6302905082702637	3024569304.2543416
1.634264349937439	3009763709.956205
1.638231635093689	2994402889.8503594
1.6421923637390137	2980018892.1766047
1.646146535873413	2963091683.698776
1.6500942707061768	2946658977.5367103
1.6540353298187256	2931646770.7285547
1.6579699516296387	2916558738.568264
1.661897897720337	2899446053.3608236
1.6658192873001099	2880185382.9588265
1.6697341203689575	2859771841.3896284
1.6736423969268799	2840936634.723261
1.677544116973877	2827691802.5617533
1.6814392805099487	2814812347.4156647
1.6853278875350952	2793547108.267585
1.6892099380493164	2767652022.5821795
1.6930854320526123	2747355439.3513374
1.696954369544983	2729712527.2787538
1.7008168697357178	2708597686.8183594
1.7046726942062378	2682142804.9521766
1.708522081375122	2648376934.9216347
1.712364912033081	2617564596.2406154
1.7162011861801147	2595014440.4958534
1.7200311422348022	2574404037.606066
1.723854422569275	2554795824.369656
1.7276713848114014	2534190261.714284
1.731481909751892	2508800091.8848314
1.7352858781814575	2482431005.5551815
1.7390835285186768	2459045868.0921106
1.7428747415542603	2436478534.5575213
1.7466596364974976	2413171379.134997
1.7504380941390991	2386889280.117224
1.7542102336883545	2356761207.9323425
1.7579760551452637	2329898317.5499697
1.7617355585098267	2309876084.7207036
1.7654887437820435	2288844512.2409434
1.7692357301712036	2262054767.744536
1.7729763984680176	2235492129.5396214
1.776710867881775	2211118089.7646637
1.7804391384124756	2186969842.3569937
1.7841613292694092	2162510765.7124987
1.7878772020339966	2141709495.2568095
1.7915871143341064	2125674336.716592
1.7952908277511597	2107661357.6251953
1.7989884614944458	2084554502.9840152
1.8026801347732544	2063233649.5132484
1.806365728378296	2050799785.342042
1.8100452423095703	2040234519.0400193
1.8137187957763672	2030193288.2774916
1.817386507987976	2011882836.1669939
1.8210482597351074	1993218714.8280532
1.8247040510177612	1990480347.2146468
1.828354001045227	1984661491.2320192
1.8319982290267944	1970224930.4599328
1.8356364965438843	1955895718.5244575
1.8392690420150757	1940012971.0902297
1.8428958654403687	1912752554.872724
1.8465168476104736	1881857310.881756
1.8501322269439697	1868108543.6667566
1.8537418842315674	1851286674.2644944
1.8573459386825562	1813194030.2259223
1.860944390296936	1795081461.8534226
1.864537239074707	1810750670.3032026
1.8681244850158691	1821000506.7538915
1.871706247329712	1807720442.8507757
1.8752825260162354	1791218536.9193687
1.8788533210754395	1790467482.7794988
1.8824186325073242	1798829480.6555727
1.8859784603118896	1798221870.6255784
1.8895330429077148	1782846111.367977
1.8930821418762207	1769673030.676838
1.8966259956359863	1771234560.5736246
1.9001644849777222	1774362785.4792454
1.9036977291107178	1766223044.43413
1.9072256088256836	1754258859.8253078
1.9107483625411987	1747478776.6064434
1.9142658710479736	1744357369.8084981
1.9177782535552979	1735260857.7644951
1.9212853908538818	1721196106.4205449
1.9247875213623047	1707325368.5991697
1.9282845258712769	1676142941.1842563
1.9317764043807983	1642572656.203384
1.9352631568908691	1652644265.2201612
1.9387450218200684	1663640077.4807844
1.942221760749817	1626352215.0271683
1.9456936120986938	1572771587.392486
1.9491604566574097	1558178203.2432082
1.952622413635254	1580587240.3639529
1.956079363822937	1606361537.5313392
1.959531545639038	1616977697.95269
1.962978720664978	1609986321.336611
1.966421127319336	1605864113.3360229
1.9698586463928223	1598084343.2889562
1.9732913970947266	1558851663.9741561
1.9767193794250488	1484848033.5960832
1.9801424741744995	1458418308.8544712
1.9835609197616577	1485928903.5390534
1.9869745969772339	1489225800.8096483
1.990383505821228	1488803508.7349265
1.9937876462936401	1500833874.0762212
1.9971871376037598	1503923580.7105207
2.000581979751587	1502257001.7359924
2.003972291946411	1500982643.3840082
2.007357597351074	1491370397.2502136
2.0107386112213135	1476263211.340799
2.0141148567199707	1469728567.1158633
2.017486572265625	1465721696.55019
2.0208535194396973	1461572017.0984893
2.0242159366607666	1455937686.4119017
2.027573823928833	1442919605.3029206
2.0309269428253174	1438033083.692798
2.034275770187378	1438527247.9815845
2.0376198291778564	1432027370.4274106
2.040959596633911	1425193591.5016096
2.044294595718384	1417791977.0085902
2.0476250648498535	1411003621.5954027
2.0509510040283203	1407212757.0534868
2.054272413253784	1402935054.206185
2.057589530944824	1400304638.2925227
2.0609018802642822	1392872635.687612
2.0642096996307373	1381164087.534524
2.0675129890441895	1379015598.5391653
2.0708119869232178	1378007107.652027
2.074106216430664	1370617605.5542178
2.0773961544036865	1366250363.4851182
2.080681324005127	1362678973.3748052
2.0839622020721436	1355840817.9673016
2.087238311767578	1349977125.592648
2.090510129928589	1347947520.8200586
2.0937774181365967	1344790753.5140295
2.0970399379730225	1337706910.1509902
2.1002981662750244	1333137840.399751
2.1035518646240234	1330520039.6280873
2.1068007946014404	1326141257.3856106
2.1100454330444336	1321421311.253177
2.1132853031158447	1317412111.0207653
2.116520881652832	1312823759.6819384
2.1197516918182373	1309054213.8821936
2.1229779720306396	1305765972.5534036
2.12619948387146	1299077294.513618
2.1294167041778564	1292877442.1157248
2.132629156112671	1290933472.1214209
2.1358368396759033	1287311674.5067751
2.139039993286133	1280559474.194687
2.1422386169433594	1277587832.001686
2.145432472229004	1277124010.9594586
2.1486217975616455	1270968480.7127428
2.151806354522705	1263545940.2533765
2.1549863815307617	1260891249.8582635
2.1581614017486572	1258461753.3818035
2.16133189201355	1253819180.066196
2.1644976139068604	1249442767.0494773
2.167658567428589	1245855437.303823
2.1708147525787354	1240677261.0913217
2.173966407775879	1234271651.7312493
2.1771130561828613	1227775098.3792586
2.1802549362182617	1222611394.2902539
2.183391809463501	1219623812.4346182
2.1865241527557373	1216224738.0121124
2.1896514892578125	1211324890.3659036
2.1927738189697266	1207164210.822594
2.1958916187286377	1204013822.5567343
2.1990041732788086	1199576383.1866674
2.2021119594573975	1193111941.2254543
2.2052149772644043	1185856795.0526383
2.208312749862671	1181014306.3836336
2.2114057540893555	1179244993.056326
2.214493751525879	1176810543.1012797
2.217576742172241	1171903444.1689765
2.2206547260284424	1166496059.7515967
2.2237277030944824	1162716808.5605853
2.2267956733703613	1158758618.244038
2.2298583984375	1153864553.5799685
2.2329163551330566	1149342205.003814
2.235969066619873	1145210270.6972666
2.2390167713165283	1141887910.7343943
2.2420592308044434	1137779676.0452166
2.2450966835021973	1132996850.6499999
2.248128890991211	1128731300.7980185
2.2511560916900635	1124341620.2648752
2.254178285598755	1119829180.8347979
2.257194995880127	1115225041.4946833
2.260206699371338	1110303239.3657572
2.2632133960723877	1105513749.26831
2.266214609146118	1101760897.926527
2.2692108154296875	1097829274.4673398
2.2722020149230957	1093360629.128943
2.2751877307891846	1089679781.0879092
2.278168201446533	1085391421.8038986
2.2811436653137207	1080416628.7931306
2.284113883972168	1076552282.1822593
2.287078857421875	1073494663.2131327
2.290038824081421	1067681393.4401398
2.2929933071136475	1056383192.979053
2.295942783355713	1046590322.6855454
2.298887014389038	1043281878.9053166
2.301826238632202	1041495105.4489284
2.304760217666626	1038580744.2076867
2.3076889514923096	1034816268.6760317
2.310612440109253	1030324888.7353961
2.3135311603546143	1025453258.5908558
2.3164443969726562	1021211838.384213
2.319352865219116	1016366550.7419765
2.322256088256836	1007552599.0357815
2.3251543045043945	999874056.2325137
2.328047275543213	997064938.6651706
2.330935478210449	994473430.5889249
2.3338186740875244	991421536.936472
2.3366971015930176	988008448.4896275
2.3395702838897705	983772359.6031667
2.3424389362335205	979658339.5961779
2.3453025817871094	976472363.850634
2.348161458969116	973487496.8591732
2.351015567779541	965265205.847363
2.353865146636963	955782904.84468
2.3567099571228027	951953661.8163748
2.3595502376556396	949992171.4700788
2.3623859882354736	949208614.4677597
2.3652172088623047	948167577.2952805
2.368043899536133	944382021.3551846
2.370866537094116	942286114.8666404
2.3736846446990967	940149317.5919713
2.3764986991882324	934613555.9422525
2.3793084621429443	927913416.529001
2.3821144104003906	918659834.337446
2.384916305541992	909601913.3294652
2.387714147567749	905458792.2834265
2.3905084133148193	905204756.3373029
2.393299102783203	904665126.0246985
2.3960859775543213	900454479.6266191
2.398869514465332	893340189.854496
2.4016497135162354	885431049.176286
2.4044265747070312	878135576.2566924
2.407200336456299	871092455.6561235
2.409970998764038	864497168.5846888
2.4127390384674072	859085907.5161165
2.415503978729248	854767520.1329985
2.418266534805298	850528456.1963595
2.4210267066955566	844687759.4658035
2.4237842559814453	837967408.9860173
2.426539897918701	831598256.7440029
2.429293394088745	827368997.8963405
2.4320452213287354	822560673.920774
2.4347951412200928	813789841.7614458
2.4375438690185547	808120161.3740623
2.440291166305542	805741891.6523048
2.443037271499634	798768603.8079545
2.445782423019409	793405091.6660261
2.4485268592834473	789995439.7538635
2.451270818710327	778736585.3106319
2.454014539718628	768331984.860884
2.4567582607269287	773388997.6203748
2.4595019817352295	769405287.762563
2.4622461795806885	760641626.5116414
2.4649908542633057	762062021.7244647
2.4677364826202393	754158415.5433594
2.4704833030700684	747910767.2895317
2.473231554031372	738995012.2162001
2.4759814739227295	731697266.4335814
2.4787333011627197	732748314.809817
2.481487512588501	728172771.409684
2.4842441082000732	727645875.7923421
