#wavelength	surface_flux
0.6450077295303345	947612.7177594556
0.6472567915916443	1426043.866522253
0.6494921445846558	1713455.9371315874
0.6517150402069092	1790473.8886202632
0.6539263725280762	1858045.2284443378
0.6561272740364075	1922945.3953880526
0.6583186388015747	1988247.7162915336
0.6605015397071838	2056468.7968015
0.6626768708229065	2125944.8396294317
0.6648455858230591	2195008.0295516467
0.6670085787773132	2263710.296177318
0.6691668033599854	2327315.6637859563
0.6713210344314575	2393244.867547532
0.6734722256660461	2476183.8396250475
0.6756211519241333	2562821.473158134
0.6777685880661011	2640885.113372643
0.6799154281616211	2716731.5734314257
0.6820623278617859	2791897.660493436
0.6842101216316223	2863466.289433977
0.6863595843315125	2931974.4678789084
0.688511312007904	3001691.46951045
0.6906660795211792	3085046.525788523
0.6928245425224304	3192021.364751632
0.6949873566627502	3311150.082139755
0.6971551775932312	3423174.893823958
0.6993286609649658	3534501.1176861627
0.7015084028244019	3673069.6028159056
0.7036949396133423	3830231.5956315533
0.7058889269828796	3947096.8777802708
0.7080909013748169	4026874.311128961
0.710301399230957	4122149.90820462
0.712520956993103	4234495.622396442
0.7147500514984131	4358220.452962595
0.7169892191886902	4501213.2141443
0.7192389369010925	4654481.976817761
0.7214996814727783	4809176.729589185
0.723771870136261	4975287.385351341
0.7260559797286987	5150368.6758354455
0.7283523678779602	5331779.153195998
0.7306615710258484	5514974.635572406
0.7329838871955872	5553829.903389416
0.7353196740150452	5387593.4154626625
0.7376693487167358	5265561.625827115
0.7400332689285278	5270218.896449398
0.7424117922782898	5319735.55541062
0.7448052167892456	5413546.217933464
0.7472138404846191	5561100.151797391
0.7496379613876343	5762032.586263297
0.7520779371261597	5982427.351064223
0.7545340061187744	6228475.333361469
0.7570064663887024	6491263.557329529
0.7594954967498779	6748727.443944213
0.7620013952255249	6870249.338664562
0.7645244002342224	6380433.804220712
0.7670646905899048	5628854.887260095
0.7696225643157959	5775015.235731275
0.7721980810165405	6843794.300528185
0.7747915983200073	7948721.842041548
0.7774031162261963	8593712.439436013
0.7800329327583313	8944718.698417295
0.7826811671257019	9360225.36433644
0.7853479981422424	9803383.153450644
0.7880334854125977	10105113.337774716
0.7907378077507019	10187909.749442907
0.7934610247612	10083052.937958458
0.7962033748626709	10108164.09619695
0.7989648580551147	10316869.615179494
0.801745593547821	10572961.373293396
0.8045456409454346	10909028.48238182
0.8073651194572449	11507957.20402059
0.8102040886878967	12557117.293110792
0.8130625486373901	14050821.316833854
0.8159406185150146	15559210.602431163
0.8188382983207703	16298069.73929561
0.8217556476593018	16773432.585241305
0.8246926665306091	17700754.63990019
0.8276493549346924	18290009.023994893
0.8306257724761963	18460456.20437239
0.8336219191551208	18893038.42576901
0.8366377949714661	19486073.837235726
0.8396733403205872	19953722.27188307
0.8427285552024841	19797153.6310496
0.8458034992218018	19076314.59329253
0.8488980531692505	18729342.1095158
0.8520121574401855	18384329.716348596
0.8551458716392517	17796325.7644167
0.8582990765571594	17455659.25864692
0.8614717125892639	17207730.666316357
0.8646637797355652	17130213.11619528
0.8678751587867737	17330229.335783307
0.8711057901382446	17854775.701602384
0.8743556141853333	18753669.99237832
0.87762451171875	20160838.865204476
0.8809124231338501	22263845.23731172
0.8842192888259888	24585260.95367955
0.8875449895858765	26365949.543548353
0.8908893465995789	28026754.591297038
0.894252359867096	29991484.147306345
0.8976338505744934	32750198.055775896
0.9010337591171265	36280941.26447697
0.9044519662857056	39840392.1627071
0.9078882932662964	44484977.781280644
0.9113426208496094	50380823.701605015
0.914814829826355	56207111.420547105
0.9183048605918884	58601010.71728832
0.9218124747276306	52969048.82671492
0.925337553024292	44471377.24389617
0.9288799166679382	40488972.970570035
0.9324395060539246	40612265.181059495
0.9360161423683167	43087112.486202575
0.9396095871925354	46562916.921018794
0.943219780921936	50370741.66660254
0.9468464851379395	54860635.334103405
0.9504896402359009	59567347.95348633
0.9541489481925964	63744896.04130325
0.9578243494033813	67467211.4642911
0.9615156054496765	70591568.09664297
0.9652225375175476	73671261.35965525
0.9689450263977051	75761387.62043262
0.9726828336715698	74333811.51835229
0.9764357805252075	72926932.67367108
0.9802037477493286	74548339.61930232
0.983986496925354	77812129.15011176
0.9877838492393494	79013705.49129206
0.9915955662727356	74377971.74382141
0.9954215884208679	72195496.32180841
0.9992615580558777	73899059.74049038
1.0031154155731201	74340281.19596265
1.0069829225540161	77436379.22899853
1.0108637809753418	83689079.7379354
1.0147579908370972	88573415.25348206
1.018665075302124	92304862.3699379
1.022585153579712	95634713.68311626
1.0265177488327026	95952915.43877362
1.0304628610610962	98622232.43452862
1.0344202518463135	106776026.50093047
1.0383895635604858	115743119.9749059
1.0423706769943237	123122340.384773
1.0463634729385376	128168807.0833122
1.0503677129745483	130960941.77850088
1.0543830394744873	133504340.02318712
1.058409333229065	138035889.01520994
1.0624464750289917	144930603.45540386
1.0664942264556885	152546128.52015564
1.0705522298812866	161528312.53305513
1.0746204853057861	172132116.28800815
1.0786986351013184	181896855.28546685
1.0827864408493042	188657612.9593202
1.086883783340454	188595189.71797052
1.0909905433654785	180457003.7496787
1.0951062440872192	168473542.47294343
1.0992310047149658	157205157.36876634
1.10336434841156	144184353.1015917
1.1075061559677124	132674894.12499905
1.1116561889648438	130962980.03733666
1.115814208984375	134177564.49498141
1.1199802160263062	137942039.46589202
1.124153733253479	145659290.46610695
1.1283347606658936	150940111.18840683
1.1325229406356812	145048271.3621967
1.1367181539535522	134906350.5637449
1.1409201622009277	133883386.37512228
1.145128846168518	145605552.43880415
1.1493438482284546	158198426.95645577
1.1535650491714478	162632669.19159293
1.1577922105789185	164240092.23610103
1.1620250940322876	165392249.20667025
1.1662636995315552	161329397.86920744
1.170507550239563	155389232.28554273
1.174756646156311	150164363.50053483
1.1790107488632202	149493571.3502461
1.1832695007324219	160776520.5058422
1.1875330209732056	173282186.2465462
1.191800832748413	179992541.51447466
1.1960728168487549	184067838.2500095
1.2003488540649414	188785853.58150312
1.2046287059783936	198434138.87567303
1.2089121341705322	208281787.0748386
1.2131990194320679	217507406.84767255
1.2174891233444214	227600278.82633588
1.2217823266983032	235841281.81067026
1.2260783910751343	244932193.4377623
1.230377197265625	253371972.0741842
1.2346785068511963	256825390.3961919
1.238982081413269	250068201.72850773
1.2432878017425537	238766993.67784068
1.2475954294204712	239709984.2490866
1.2519049644470215	244679849.03369606
1.256216049194336	251729266.50595087
1.2605286836624146	263513012.7678041
1.2648425102233887	272134280.0955244
1.2691574096679688	279668538.21558136
1.2734732627868652	285902794.7784896
1.2777899503707886	291482280.25567144
1.2821072340011597	294184993.9659061
1.2864248752593994	292728716.4252956
1.2907428741455078	294151601.6157924
1.2950609922409058	300684882.65005505
1.2993791103363037	306373100.0656138
1.303696870803833	307684338.9512203
1.3080145120620728	302614226.26303524
1.3123314380645752	293807683.8246167
1.3166478872299194	286745988.8583202
1.3209635019302368	277860902.12944007
1.3252781629562378	258926490.64134166
1.3295916318893433	221540567.23028255
1.3339040279388428	171503412.7439525
1.3382149934768677	136027045.9841484
1.3425244092941284	123176430.00172727
1.3468321561813354	118800475.90714282
1.3511382341384888	115443781.17130686
1.3554422855377197	112524395.24448535
1.3597444295883179	112245630.09064816
1.3640443086624146	114023758.16614296
1.3683418035507202	114664643.08180319
1.3726370334625244	114482250.22342739
1.3769296407699585	116941618.13490142
1.381219506263733	120079370.46111906
1.3855066299438477	120998773.09873424
1.3897908926010132	119786373.15440288
1.3940720558166504	117427944.12867102
1.3983501195907593	115959587.60252582
1.4026249647140503	115858575.0218211
1.4068963527679443	114821048.50574693
1.4111642837524414	112473698.52844523
1.4154287576675415	111012113.70491296
1.419689416885376	110425449.23931485
1.4239463806152344	109909081.34701414
1.4281994104385376	110207016.01678891
1.4324485063552856	111879528.27081653
1.436693549156189	114000459.95103155
1.440934419631958	115944463.00059801
1.4451709985733032	117944509.88743725
1.449403166770935	121082621.21693799
1.453631043434143	124735077.7601869
1.4578542709350586	127138572.08969054
1.4620729684829712	127831189.00525667
1.4662868976593018	127503528.88790376
1.4704961776733398	127432545.86673503
1.4747005701065063	128919234.5452641
1.4788999557495117	131441106.37825598
1.4830944538116455	133911350.12191111
1.4872838258743286	135978820.67563584
1.491468071937561	137136261.20142093
1.4956470727920532	138786915.2587064
1.4998208284378052	141063161.79498458
1.5039892196655273	143400676.5426291
1.5081522464752197	146488566.85253337
1.5123097896575928	150366237.387072
1.5164618492126465	153441390.52417442
1.5206083059310913	155626679.94034377
1.5247491598129272	157854546.84634468
1.5288842916488647	160155497.5596457
1.5330137014389038	162669228.13613373
1.5371372699737549	165622858.76952434
1.541254997253418	169335440.0212627
1.545366883277893	173685360.1095728
1.5494728088378906	178015837.4217526
1.5535727739334106	181268545.58283415
1.5576666593551636	183793653.10263228
1.561754584312439	188030314.2862014
1.5658363103866577	193896751.77660352
1.5699119567871094	199042112.30513832
1.5739814043045044	203876032.23516
1.5780447721481323	208568513.28109053
1.582101821899414	213344475.40330523
1.5861525535583496	218988257.00225192
1.5901970863342285	224022120.33542952
1.5942351818084717	228937415.20514652
1.5982669591903687	234817656.6899832
1.6022924184799194	240075289.4276349
1.606311559677124	244624441.52296445
1.6103241443634033	248703495.1365919
1.6143304109573364	253629759.01383045
1.6183301210403442	259513673.48563212
1.6223233938217163	264896567.07875597
1.6263102293014526	269375515.8935375
1.6302905082702637	272598714.2210405
1.634264349937439	276831096.29723585
1.638231635093689	282269811.89841443
1.6421923637390137	286832212.58026266
1.646146535873413	291006074.99731976
1.6500942707061768	293104023.0202673
1.6540353298187256	294772383.0702948
1.6579699516296387	297049890.15921205
1.661897897720337	299677025.2387057
1.6658192873001099	304678384.4822991
1.6697341203689575	308188750.9835666
1.6736423969268799	310853521.3211303
1.677544116973877	314382921.471756
1.6814392805099487	315858023.6398015
1.6853278875350952	313743723.28293824
1.6892099380493164	309358826.93521416
1.6930854320526123	302905250.2486828
1.696954369544983	294144002.70969576
1.7008168697357178	287812106.31204695
1.7046726942062378	281676012.21526015
1.708522081375122	271076330.37122613
1.712364912033081	257113373.1776062
1.7162011861801147	242345330.3664635
1.7200311422348022	233471297.87274107
1.723854422569275	230614824.3448468
1.7276713848114014	226020167.73812747
1.731481909751892	218316018.50736767
1.7352858781814575	211483847.1818967
1.7390835285186768	207357400.77889484
1.7428747415542603	202953546.06676304
1.7466596364974976	197259097.38408175
1.7504380941390991	192955953.57860297
1.7542102336883545	187972992.41281888
1.7579760551452637	182406952.407256
1.7617355585098267	179914722.5827646
1.7654887437820435	177300895.9328223
1.7692357301712036	171671525.93236205
1.7729763984680176	165986744.62130705
1.776710867881775	162430082.14872804
1.7804391384124756	160559222.66576102
1.7841613292694092	157169277.51596797
1.7878772020339966	153282394.88709506
1.7915871143341064	151390050.47229648
1.7952908277511597	150528182.87688112
1.7989884614944458	148362049.76537976
1.8026801347732544	144876292.78659478
1.806365728378296	143108160.42391977
1.8100452423095703	143059467.0404119
1.8137187957763672	145137316.2038391
1.817386507987976	144592246.07419685
1.8210482597351074	142286671.0437011
1.8247040510177612	143551022.80675805
1.828354001045227	143806908.7014375
1.8319982290267944	141926567.43249318
1.8356364965438843	140481655.16453734
1.8392690420150757	139266464.6916904
1.8428958654403687	136492170.499238
1.8465168476104736	132930278.28939784
1.8501322269439697	132722463.27231605
1.8537418842315674	132411937.96187082
1.8573459386825562	127283142.20059328
1.860944390296936	123852210.1415037
1.864537239074707	126084281.38530311
1.8681244850158691	129943866.67599343
1.871706247329712	132099002.15047024
1.8752825260162354	132284546.90309097
1.8788533210754395	133606178.8877926
1.8824186325073242	137805341.99057087
1.8859784603118896	140938379.42230535
1.8895330429077148	140395285.8921235
1.8930821418762207	139494755.25660104
1.8966259956359863	141800627.52499717
1.9001644849777222	144903177.6658914
1.9036977291107178	145335136.275371
1.9072256088256836	144792346.11823842
1.9107483625411987	144898477.34287468
1.9142658710479736	145466703.98492298
1.9177782535552979	145143226.9860607
1.9212853908538818	143804890.31469727
1.9247875213623047	143117193.7985167
1.9282845258712769	142980046.45898992
1.9317764043807983	142172521.01172924
1.9352631568908691	140763911.03686765
1.9387450218200684	137968464.31623885
1.942221760749817	136970845.48506996
1.9456936120986938	139370937.4075846
1.9491604566574097	140373473.06806743
1.952622413635254	138522289.29464802
1.956079363822937	137213019.88654932
1.959531545639038	138093506.99763682
1.962978720664978	138294511.32833266
1.966421127319336	138528447.32470638
1.9698586463928223	139322483.4834142
1.9732913970947266	138095968.16397116
1.9767193794250488	136545815.65616983
1.9801424741744995	136281872.26198888
1.9835609197616577	136712324.51399732
1.9869745969772339	136743161.59753242
1.990383505821228	135827812.42400053
1.9937876462936401	136790323.755174
1.9971871376037598	137031240.81638375
2.000581979751587	136410835.17095688
2.003972291946411	137969273.24427745
2.007357597351074	138708432.57696363
2.0107386112213135	138655546.1836261
2.0141148567199707	139417900.0619549
2.017486572265625	139574177.5540186
2.0208535194396973	141238720.41772407
2.0242159366607666	143340507.74677575
2.027573823928833	142619428.92552793
2.0309269428253174	143442437.46018714
2.034275770187378	145867086.05698097
2.0376198291778564	146494599.18963897
2.040959596633911	146570379.06205273
2.044294595718384	147600428.03704795
2.0476250648498535	149022173.9512317
2.0509510040283203	149326778.86824048
2.054272413253784	149930380.9589204
2.057589530944824	152788112.02532205
2.0609018802642822	153358989.0939574
2.0642096996307373	152295083.48350936
2.0675129890441895	154841842.98315066
2.0708119869232178	156866015.4156938
2.074106216430664	156780474.82240134
2.0773961544036865	158134916.17936346
2.080681324005127	159460691.4465779
2.0839622020721436	160033578.27192283
2.087238311767578	161261234.8439796
2.090510129928589	163238290.4979348
2.0937774181365967	164380794.78691345
2.0970399379730225	164903175.95919177
2.1002981662750244	166743382.64461058
2.1035518646240234	168174706.5548079
2.1068007946014404	168564752.5608894
2.1100454330444336	169977970.1840768
2.1132853031158447	172440565.44929764
2.116520881652832	173103946.36315686
2.1197516918182373	173493790.57617423
2.1229779720306396	175893064.8700404
2.12619948387146	176669854.66021553
2.1294167041778564	176308351.52897733
2.132629156112671	178663673.44384798
2.1358368396759033	181002697.70745286
2.139039993286133	180211113.88238105
2.1422386169433594	181045039.8237147
2.145432472229004	184599992.68686143
2.1486217975616455	184394488.40714908
2.151806354522705	182487934.41020766
2.1549863815307617	183632524.864851
2.1581614017486572	185454523.4931596
2.16133189201355	185961895.04454648
2.1644976139068604	186420583.5900543
2.167658567428589	188063466.01813227
2.1708147525787354	188384728.13059187
2.173966407775879	186840564.0807981
2.1771130561828613	185551642.37212545
2.1802549362182617	186000684.3007649
2.183391809463501	187012389.93326968
2.1865241527557373	187209104.45650375
2.1896514892578125	187744175.45087084
2.1927738189697266	187594039.13500318
2.1958916187286377	187474506.64538085
2.1990041732788086	187831419.25945222
2.2021119594573975	186754575.86332583
2.2052149772644043	185947526.07207057
2.208312749862671	186792081.50931838
2.2114057540893555	187809404.96615908
2.214493751525879	187521445.05324242
2.217576742172241	185031483.42536306
2.2206547260284424	183510300.50653747
2.2237277030944824	185444337.95501018
2.2267956733703613	185957673.61507022
2.2298583984375	185274139.57887885
2.2329163551330566	184723973.67457658
2.235969066619873	183177374.66074154
2.2390167713165283	183834741.1665753
2.2420592308044434	184595165.68585533
2.2450966835021973	184346835.39259225
2.248128890991211	184372018.80027488
2.2511560916900635	183526232.17978537
2.254178285598755	182271715.9091437
2.257194995880127	181986770.30100203
2.260206699371338	181985944.16521284
2.2632133960723877	180442633.70114827
2.266214609146118	179499529.11177826
2.2692108154296875	179492982.99944603
2.2722020149230957	179414712.14905104
2.2751877307891846	180162633.85237578
2.278168201446533	178918133.30002603
2.2811436653137207	176763997.40347674
2.284113883972168	177598102.3948826
2.287078857421875	179646970.6904375
2.290038824081421	176855287.13789254
2.2929933071136475	165140108.31360403
2.295942783355713	154971611.7425839
2.298887014389038	155065922.5864966
2.301826238632202	158618729.20481172
2.304760217666626	160527774.89188245
2.3076889514923096	160494954.99962103
2.310612440109253	158882430.70658764
2.3135311603546143	157546290.59062672
2.3164443969726562	157534243.01994076
2.319352865219116	156840403.69984156
2.322256088256836	152063347.7088119
2.3251543045043945	148426829.94469428
2.328047275543213	149234113.60090584
2.330935478210449	149808758.25263122
2.3338186740875244	150235543.63932043
2.3366971015930176	150105231.10587656
2.3395702838897705	148172541.37690106
2.3424389362335205	147342094.13540682
2.3453025817871094	149228156.53713208
2.348161458969116	150473950.17972583
2.351015567779541	145826272.7897912
2.353865146636963	140617967.07763752
2.3567099571228027	140273109.77153662
2.3595502376556396	140411415.76529402
2.3623859882354736	141093356.35755745
2.3652172088623047	142183036.8258658
2.368043899536133	141902477.85733137
2.370866537094116	142683245.64960873
2.3736846446990967	143735145.8662351
2.3764986991882324	142076038.58605444
2.3793084621429443	139513289.812457
2.3821144104003906	136502876.2422184
2.384916305541992	133394554.5221567
2.387714147567749	133499066.48876661
2.3905084133148193	136030473.56306273
2.393299102783203	136763336.52371538
2.3960859775543213	135669808.42941666
2.398869514465332	133937481.45702702
2.4016497135162354	131819922.32584567
2.4044265747070312	130461165.37622787
2.407200336456299	128003193.58436348
2.409970998764038	125307949.78905652
2.4127390384674072	124639134.62066212
2.415503978729248	124058867.61543924
2.418266534805298	123035714.47504266
2.4210267066955566	122599906.39404225
2.4237842559814453	121607446.02320182
2.426539897918701	119477679.51708844
2.429293394088745	118302194.3903717
2.4320452213287354	117340597.78096953
2.4347951412200928	115265599.08787386
2.4375438690185547	114892199.53753726
2.440291166305542	115689097.98610704
2.443037271499634	113813272.81204422
2.445782423019409	111599691.73580141
2.4485268592834473	110972367.78098647
2.451270818710327	108654286.55234034
2.454014539718628	106598848.9320913
2.4567582607269287	109330405.55774137
2.4595019817352295	109328216.29467537
2.4622461795806885	107598360.95231077
2.4649908542633057	108879005.31085043
2.4677364826202393	106790958.66029008
2.4704833030700684	103582198.08037621
2.473231554031372	100897460.2082704
