#wavelength	surface_flux
0.6450077295303345	18017.310901293677
0.6472567915916443	27614.644484555414
0.6494921445846558	34210.41726430867
0.6517150402069092	36884.435869972105
0.6539263725280762	39431.45419023044
0.6561272740364075	42002.5170392785
0.6583186388015747	44523.90029799123
0.6605015397071838	47209.67743320439
0.6626768708229065	50109.57288565484
0.6648455858230591	53102.342595471186
0.6670085787773132	56094.804421622786
0.6691668033599854	58932.93749824137
0.6713210344314575	61745.08608689475
0.6734722256660461	64904.66857435802
0.6756211519241333	68201.88638775927
0.6777685880661011	71271.12666221702
0.6799154281616211	74353.61873936323
0.6820623278617859	77426.37475746866
0.6842101216316223	80432.65190587039
0.6863595843315125	83459.98280695737
0.688511312007904	86285.6827427314
0.6906660795211792	88771.0962442831
0.6928245425224304	91217.79578400204
0.6949873566627502	94302.21728248688
0.6971551775932312	97635.65950542495
0.6993286609649658	101067.25652482918
0.7015084028244019	105500.38343189393
0.7036949396133423	110303.0261486725
0.7058889269828796	114607.76559699516
0.7080909013748169	118383.53753526011
0.710301399230957	122206.84000200377
0.712520956993103	126686.37818969833
0.7147500514984131	130900.56091739173
0.7169892191886902	134449.21231173328
0.7192389369010925	138363.2076767737
0.7214996814727783	142995.3740508267
0.723771870136261	147740.27568879857
0.7260559797286987	151989.66116478908
0.7283523678779602	155786.3371527584
0.7306615710258484	159439.8724354014
0.7329838871955872	162860.11014315294
0.7353196740150452	166146.67884834498
0.7376693487167358	169152.19036971332
0.7400332689285278	171397.68997880266
0.7424117922782898	173425.75694680517
0.7448052167892456	175191.25441156677
0.7472138404846191	175820.31118579794
0.7496379613876343	174357.7384283682
0.7520779371261597	170399.27040689604
0.7545340061187744	163337.19234157357
0.7570064663887024	152624.1471172621
0.7594954967498779	137043.47617912732
0.7620013952255249	106460.94562455096
0.7645244002342224	57067.34300001812
0.7670646905899048	16924.990489526095
0.7696225643157959	8894.316436323974
0.7721980810165405	35832.74020622753
0.7747915983200073	98888.16022960396
0.7774031162261963	164663.8354684793
0.7800329327583313	205753.29578360636
0.7826811671257019	246599.32747703223
0.7853479981422424	290825.27966719307
0.7880334854125977	324349.4085569072
0.7907378077507019	349642.4222733894
0.7934610247612	363922.5041065458
0.7962033748626709	385614.3676828889
0.7989648580551147	425138.6946217917
0.801745593547821	460138.406165542
0.8045456409454346	485851.29877968936
0.8073651194572449	509720.8576806765
0.8102040886878967	531840.5526822013
0.8130625486373901	553956.8030829454
0.8159406185150146	579539.7976552879
0.8188382983207703	608087.1387809452
0.8217556476593018	635646.198092345
0.8246926665306091	663706.4310920285
0.8276493549346924	693890.5044327873
0.8306257724761963	723349.7295675488
0.8336219191551208	753335.8178216583
0.8366377949714661	785584.9222549167
0.8396733403205872	819106.1478106083
0.8427285552024841	853797.7699488017
0.8458034992218018	888971.2605109657
0.8488980531692505	918648.8762078865
0.8520121574401855	945116.3656462495
0.8551458716392517	987792.1118802648
0.8582990765571594	1038742.5833861122
0.8614717125892639	1080252.9547816485
0.8646637797355652	1119917.0196512602
0.8678751587867737	1162776.7676736724
0.8711057901382446	1207167.6716630787
0.8743556141853333	1252221.0761165365
0.87762451171875	1298419.2232373473
0.8809124231338501	1345922.8076001592
0.8842192888259888	1394758.461850774
0.8875449895858765	1440893.4072976508
0.8908893465995789	1471101.4513627177
0.894252359867096	1492651.925330124
0.8976338505744934	1544101.2083076993
0.9010337591171265	1622109.5785713345
0.9044519662857056	1694948.8145413608
0.9078882932662964	1754197.282305504
0.9113426208496094	1805951.74897083
0.914814829826355	1859941.2938750484
0.9183048605918884	1922381.0743096673
0.9218124747276306	1982501.6263762347
0.925337553024292	1984321.8649603273
0.9288799166679382	1928127.5563035833
0.9324395060539246	1930477.9532677566
0.9360161423683167	2033751.323868553
0.9396095871925354	2171245.9422342884
0.943219780921936	2278989.314744801
0.9468464851379395	2344367.696559214
0.9504896402359009	2405294.060727712
0.9541489481925964	2478062.9770151074
0.9578243494033813	2552550.3312994926
0.9615156054496765	2641750.024194656
0.9652225375175476	2764135.5748253674
0.9689450263977051	2903705.6810177197
0.9726828336715698	3033653.592545472
0.9764357805252075	3155950.1767408513
0.9802037477493286	3283640.01600402
0.983986496925354	3415770.530401992
0.9877838492393494	3556413.968579813
0.9915955662727356	3702001.9450821546
0.9954215884208679	3844557.282235773
0.9992615580558777	3987169.8628494665
1.0031154155731201	4132671.784901608
1.0069829225540161	4280297.292546805
1.0108637809753418	4428195.307476123
1.0147579908370972	4575556.843551984
1.018665075302124	4723035.389487096
1.022585153579712	4871701.924939915
1.0265177488327026	5022342.96644614
1.0304628610610962	5175291.86187021
1.0344202518463135	5331022.953563006
1.0383895635604858	5489700.777705701
1.0423706769943237	5651323.766477034
1.0463634729385376	5815859.987112473
1.0503677129745483	5983449.710448357
1.0543830394744873	6153779.76099801
1.058409333229065	6326442.307716881
1.0624464750289917	6502381.612562491
1.0664942264556885	6680999.104302629
1.0705522298812866	6861849.389249895
1.0746204853057861	7047409.6379304705
1.0786986351013184	7236762.226911352
1.0827864408493042	7424034.383815451
1.086883783340454	7588881.621376539
1.0909905433654785	7688766.735842869
1.0951062440872192	7706155.053432001
1.0992310047149658	7680328.1793876225
1.10336434841156	7653060.64857127
1.1075061559677124	7624646.274409363
1.1116561889648438	7594421.828387264
1.115814208984375	7624074.269329968
1.1199802160263062	7789759.986942147
1.124153733253479	8104698.072977315
1.1283347606658936	8347938.263178716
1.1325229406356812	8298934.774077805
1.1367181539535522	8439375.303798594
1.1409201622009277	8940778.253780205
1.145128846168518	9320072.582237083
1.1493438482284546	9584241.876024954
1.1535650491714478	9780065.187692082
1.1577922105789185	9927210.261746641
1.1620250940322876	10140470.88096331
1.1662636995315552	10369392.276421558
1.170507550239563	10661003.075620683
1.174756646156311	11028294.422717188
1.1790107488632202	11475589.738755055
1.1832695007324219	11996464.700422542
1.1875330209732056	12496566.901506191
1.191800832748413	12991707.933679292
1.1960728168487549	13476039.984857822
1.2003488540649414	13909944.440160796
1.2046287059783936	14311470.579030482
1.2089121341705322	14688755.123455549
1.2131990194320679	15060848.735101985
1.2174891233444214	15445226.182179462
1.2217823266983032	15821470.482608257
1.2260783910751343	16193970.120692117
1.230377197265625	16571850.956796663
1.2346785068511963	16940126.342248682
1.238982081413269	17299053.29377922
1.2432878017425537	17652392.16090003
1.2475954294204712	18000258.397830326
1.2519049644470215	18330238.491690703
1.256216049194336	18662560.433638595
1.2605286836624146	18995551.332031082
1.2648425102233887	19297011.389464647
1.2691574096679688	19575858.39325516
1.2734732627868652	19836145.94581014
1.2777899503707886	20078002.16235025
1.2821072340011597	20282955.15835918
1.2864248752593994	20446751.81439432
1.2907428741455078	20613892.981901962
1.2950609922409058	20834149.506721493
1.2993791103363037	21088345.850096922
1.303696870803833	21359428.955647662
1.3080145120620728	21666855.345713448
1.3123314380645752	21918028.266075
1.3166478872299194	22085457.074170485
1.3209635019302368	22165844.356062766
1.3252781629562378	21863941.136341684
1.3295916318893433	20529418.40069596
1.3339040279388428	18039070.180583883
1.3382149934768677	15824972.79539997
1.3425244092941284	14629354.169365544
1.3468321561813354	13635476.813856581
1.3511382341384888	12571077.414131308
1.3554422855377197	11751395.295960506
1.3597444295883179	11664813.551773606
1.3640443086624146	12352130.636429565
1.3683418035507202	12820083.59522948
1.3726370334625244	12810115.608854285
1.3769296407699585	13235248.985596783
1.381219506263733	13852330.923052788
1.3855066299438477	14264417.83110432
1.3897908926010132	14476896.316209175
1.3940720558166504	14223311.88355049
1.3983501195907593	13893151.087565977
1.4026249647140503	13836893.14529929
1.4068963527679443	13739592.027430424
1.4111642837524414	13545594.76774529
1.4154287576675415	13429896.490182592
1.419689416885376	13206823.103830932
1.4239463806152344	13024314.73942338
1.4281994104385376	13289070.806267543
1.4324485063552856	13882530.498537345
1.436693549156189	14569343.507767351
1.440934419631958	15230980.168259222
1.4451709985733032	15875571.642318746
1.449403166770935	17017084.37428183
1.453631043434143	18445020.212138988
1.4578542709350586	19485531.827548254
1.4620729684829712	19910717.787634987
1.4662868976593018	20052563.346427888
1.4704961776733398	20368505.53835644
1.4747005701065063	20935182.095135733
1.4788999557495117	21620292.28831898
1.4830944538116455	22250307.330894295
1.4872838258743286	22907428.907640543
1.491468071937561	23561431.283168055
1.4956470727920532	24313958.15561088
1.4998208284378052	25101318.657904193
1.5039892196655273	25816932.2644056
1.5081522464752197	26670601.629704855
1.5123097896575928	27711384.42749989
1.5164618492126465	28679899.94029216
1.5206083059310913	29567083.595085595
1.5247491598129272	30515369.409367718
1.5288842916488647	31412887.247765087
1.5330137014389038	32327583.663016938
1.5371372699737549	33367194.611748405
1.541254997253418	34414384.25262859
1.545366883277893	35442197.52555683
1.5494728088378906	36344743.08726531
1.5535727739334106	36874769.66552303
1.5576666593551636	36948170.68495824
1.561754584312439	37217419.81104125
1.5658363103866577	38191703.51873101
1.5699119567871094	39342998.98278347
1.5739814043045044	40185318.13848214
1.5780447721481323	40512260.834464565
1.582101821899414	40805802.10891504
1.5861525535583496	41449804.080488876
1.5901970863342285	42103135.11168977
1.5942351818084717	42644060.55335401
1.5982669591903687	43115419.22437778
1.6022924184799194	43511304.66369395
1.606311559677124	43920443.201815784
1.6103241443634033	44347512.66500249
1.6143304109573364	44754604.65586581
1.6183301210403442	45130831.126826935
1.6223233938217163	45508232.433639325
1.6263102293014526	45845670.48354767
1.6302905082702637	46063652.595635734
1.634264349937439	46297886.30556737
1.638231635093689	46593350.594779514
1.6421923637390137	46835671.88897467
1.646146535873413	47045531.98410641
1.6500942707061768	47242585.715055525
1.6540353298187256	47414344.152631894
1.6579699516296387	47518593.27659811
1.661897897720337	47600565.797113635
1.6658192873001099	47801890.38408952
1.6697341203689575	47950747.48879489
1.6736423969268799	48102426.43457236
1.677544116973877	48498261.949929334
1.6814392805099487	48885784.46031445
1.6853278875350952	48933586.01948327
1.6892099380493164	48769174.7639099
1.6930854320526123	48685576.85920337
1.696954369544983	48692164.01280518
1.7008168697357178	48876290.42715283
1.7046726942062378	48961117.623900436
1.708522081375122	48630927.32827143
1.712364912033081	48047128.40223701
1.7162011861801147	47220448.77764627
1.7200311422348022	46464906.30642686
1.723854422569275	45946565.57022934
1.7276713848114014	45463427.779589415
1.731481909751892	44896700.27689037
1.7352858781814575	44253762.238859415
1.7390835285186768	43683344.10687837
1.7428747415542603	43027596.36868394
1.7466596364974976	42162658.01682646
1.7504380941390991	41540456.30445009
1.7542102336883545	41053611.74363818
1.7579760551452637	40431206.82648838
1.7617355585098267	39922009.21561259
1.7654887437820435	39075700.56201381
1.7692357301712036	37744814.22874099
1.7729763984680176	36451479.55880833
1.776710867881775	35482011.95183385
1.7804391384124756	34666937.20644579
1.7841613292694092	33431188.216595683
1.7878772020339966	32613418.930354055
1.7915871143341064	32172181.72822116
1.7952908277511597	31666877.15784227
1.7989884614944458	30719167.488714896
1.8026801347732544	29132843.15231329
1.806365728378296	28056579.082993623
1.8100452423095703	27910313.79624297
1.8137187957763672	28981699.20645296
1.817386507987976	28691781.622333787
1.8210482597351074	27480416.93190137
1.8247040510177612	28199512.743045226
1.828354001045227	28655451.375858262
1.8319982290267944	28008803.99021321
1.8356364965438843	27228577.622265384
1.8392690420150757	26611090.67116757
1.8428958654403687	26026802.25573238
1.8465168476104736	25027923.03173784
1.8501322269439697	25037833.34322106
1.8537418842315674	25133929.427485596
1.8573459386825562	23253022.397956952
1.860944390296936	21514922.074103992
1.864537239074707	21593383.695860017
1.8681244850158691	22620728.199868407
1.871706247329712	23579932.86141589
1.8752825260162354	24424257.504512265
1.8788533210754395	26199169.264903896
1.8824186325073242	28644804.7392632
1.8859784603118896	30226508.999812502
1.8895330429077148	30530602.070869274
1.8930821418762207	30764871.067534264
1.8966259956359863	31763247.867824893
1.9001644849777222	32386444.105044104
1.9036977291107178	32260331.248553112
1.9072256088256836	32456594.344191678
1.9107483625411987	32511832.28244896
1.9142658710479736	32444986.08242895
1.9177782535552979	32590553.734707016
1.9212853908538818	31790433.40385874
1.9247875213623047	30827389.42609188
1.9282845258712769	30311026.49674907
1.9317764043807983	29423064.583232593
1.9352631568908691	28305898.212271024
1.9387450218200684	26778318.689697206
1.942221760749817	26641179.453544654
1.9456936120986938	28012650.946923856
1.9491604566574097	28509217.507491626
1.952622413635254	27872652.689410478
1.956079363822937	27269861.27721273
1.959531545639038	27981495.077163782
1.962978720664978	28789791.72068651
1.966421127319336	29457167.115358457
1.9698586463928223	30234256.619439628
1.9732913970947266	30041178.738439836
1.9767193794250488	29988739.30198056
1.9801424741744995	30509418.589179568
1.9835609197616577	31254234.193033624
1.9869745969772339	31703437.636866197
1.990383505821228	31527464.827140428
1.9937876462936401	32299364.305773374
1.9971871376037598	32655558.694622952
2.000581979751587	32713272.89478022
2.003972291946411	33723694.82677992
2.007357597351074	34283537.65464697
2.0107386112213135	34946921.26494161
2.0141148567199707	35672839.46955302
2.017486572265625	35676147.12050483
2.0208535194396973	36990721.14343763
2.0242159366607666	38757854.8423573
2.027573823928833	38627508.97444167
2.0309269428253174	39003700.26324432
2.034275770187378	40744884.28910489
2.0376198291778564	41720037.75467381
2.040959596633911	41909584.47229036
2.044294595718384	42793904.61904566
2.0476250648498535	44104991.644458495
2.0509510040283203	44269474.99521752
2.054272413253784	44449910.86364018
2.057589530944824	46286143.0070071
2.0609018802642822	47158638.800702706
2.0642096996307373	46941490.42450697
2.0675129890441895	47888694.31217528
2.0708119869232178	48690331.47895239
2.074106216430664	48981828.197701514
2.0773961544036865	49631368.63233372
2.080681324005127	50174296.02502096
2.0839622020721436	50556611.220886774
2.087238311767578	51096475.46424779
2.090510129928589	51705011.28317598
2.0937774181365967	52111854.66537388
2.0970399379730225	52484263.98614509
2.1002981662750244	52954268.17601942
2.1035518646240234	53162457.27494842
2.1068007946014404	53339950.50805615
2.1100454330444336	53736708.28636683
2.1132853031158447	54219158.91949254
2.116520881652832	54230071.72535259
2.1197516918182373	54247439.54941905
2.1229779720306396	54914088.6043832
2.12619948387146	55244471.39140008
2.1294167041778564	55037103.07571381
2.132629156112671	55351369.052922904
2.1358368396759033	55816586.45687232
2.139039993286133	55537703.339150324
2.1422386169433594	55431620.14114434
2.145432472229004	55991254.45808037
2.1486217975616455	56157725.53671488
2.151806354522705	55848050.38339203
2.1549863815307617	55853228.15491213
2.1581614017486572	56085706.24684276
2.16133189201355	56195827.335764386
2.1644976139068604	56177822.41210231
2.167658567428589	56249511.43128661
2.1708147525787354	56289334.45550834
2.173966407775879	56054635.22111446
2.1771130561828613	55716653.46364721
2.1802549362182617	55753340.00879445
2.183391809463501	55894348.35098758
2.1865241527557373	55748252.202891625
2.1896514892578125	55803160.82251573
2.1927738189697266	55690096.669166245
2.1958916187286377	55123266.42003074
2.1990041732788086	54760752.16452654
2.2021119594573975	54633566.771344356
2.2052149772644043	54623207.50159066
2.208312749862671	54863778.99829885
2.2114057540893555	55143035.65097992
2.214493751525879	55048825.34831547
2.217576742172241	54242890.11466756
2.2206547260284424	53522442.35407349
2.2237277030944824	53768955.48569175
2.2267956733703613	54085010.95602978
2.2298583984375	54277347.663258746
2.2329163551330566	54316176.63121709
2.235969066619873	53952701.2486512
2.2390167713165283	53855219.780538656
2.2420592308044434	53510599.736909695
2.2450966835021973	53095669.4298038
2.248128890991211	53223027.76369459
2.2511560916900635	53431939.0118383
2.254178285598755	53293743.044643074
2.257194995880127	53172323.72619649
2.260206699371338	53389089.124527216
2.2632133960723877	53006309.86328828
2.266214609146118	52143415.62976534
2.2692108154296875	51656871.472978294
2.2722020149230957	51893853.150247104
2.2751877307891846	52564796.32108269
2.278168201446533	52389790.977867596
2.2811436653137207	51688178.33358292
2.284113883972168	51801909.55039241
2.287078857421875	52306497.872866176
2.290038824081421	51064013.91633883
2.2929933071136475	46207304.68732389
2.295942783355713	41315425.690706536
2.298887014389038	40333306.21619368
2.301826238632202	41173542.273086086
2.304760217666626	41571797.62398829
2.3076889514923096	41219730.64311852
2.310612440109253	40551262.90422833
2.3135311603546143	40224672.28919635
2.3164443969726562	40157713.27684054
2.319352865219116	39737821.371431984
2.322256088256836	38146786.08519954
2.3251543045043945	37440700.68249154
2.328047275543213	38333131.548547305
2.330935478210449	39084425.380010836
2.3338186740875244	39990888.154919334
2.3366971015930176	40384110.61690251
2.3395702838897705	39747221.50922866
2.3424389362335205	39697353.095010854
2.3453025817871094	40969065.41996935
2.348161458969116	41762118.31823888
2.351015567779541	40064860.35379118
2.353865146636963	38398728.29439821
2.3567099571228027	38343903.65242677
2.3595502376556396	37934081.6124771
2.3623859882354736	37568240.418320954
2.3652172088623047	37642214.76717736
2.368043899536133	37619643.78021005
2.370866537094116	37833736.70643207
2.3736846446990967	38426050.58762484
2.3764986991882324	38206836.40150408
2.3793084621429443	37423421.032666385
2.3821144104003906	36606386.344107226
2.384916305541992	35626757.46954743
2.387714147567749	36082734.15868078
2.3905084133148193	37471677.0756957
2.393299102783203	37633848.89198321
2.3960859775543213	37357102.730850175
2.398869514465332	37553998.60602213
2.4016497135162354	37431995.30517015
2.4044265747070312	37135761.340050094
2.407200336456299	36038079.79265013
2.409970998764038	34713907.45815188
2.4127390384674072	34479217.85109209
2.415503978729248	34186879.35818626
2.418266534805298	33563742.25859741
2.4210267066955566	33675644.66310659
2.4237842559814453	33898401.55043468
2.426539897918701	33415997.963514633
2.429293394088745	33137686.21859015
2.4320452213287354	32272965.681394003
2.4347951412200928	30573741.04971226
2.4375438690185547	30843466.940860644
2.440291166305542	32133927.639864307
2.443037271499634	30912790.566018634
2.445782423019409	28759631.70733344
2.4485268592834473	28128734.727199152
2.451270818710327	26982153.317264386
2.454014539718628	26002639.27086636
2.4567582607269287	28508294.893356565
2.4595019817352295	29276506.897237193
2.4622461795806885	28215434.13183132
2.4649908542633057	28527242.838971425
2.4677364826202393	26670120.436606906
2.4704833030700684	24418722.467722047
2.473231554031372	22771152.69770317
2.4759814739227295	22173684.567910127
2.4787333011627197	22573014.88418854
2.481487512588501	22400050.94902384
