#wavelength	surface_flux
0.6450077295303345	777565478.9727852
0.6472567915916443	1173865092.3091817
0.6494921445846558	1426895502.6927207
0.6517150402069092	1578594476.9275396
0.6539263725280762	1757101571.6182234
0.6561272740364075	1862355964.1425982
0.6583186388015747	1917886427.4136941
0.6605015397071838	1953262678.074272
0.6626768708229065	1955529501.472477
0.6648455858230591	1913119252.293507
0.6670085787773132	1834487076.4783368
0.6691668033599854	1660424988.9981
0.6713210344314575	1378300084.025583
0.6734722256660461	1150277788.6118827
0.6756211519241333	1001327362.7978296
0.6777685880661011	853152501.9846466
0.6799154281616211	723228002.6335424
0.6820623278617859	611080933.7188216
0.6842101216316223	489934602.2541858
0.6863595843315125	389920202.6614562
0.688511312007904	341038954.76394874
0.6906660795211792	356281802.866527
0.6928245425224304	462188416.8963267
0.6949873566627502	601642547.9446433
0.6971551775932312	670351968.6005152
0.6993286609649658	702173311.1206964
0.7015084028244019	881680575.9947125
0.7036949396133423	1338879530.5628722
0.7058889269828796	1783731153.4252014
0.7080909013748169	1912092759.9001625
0.710301399230957	1878159404.2687488
0.712520956993103	1801642906.7958074
0.7147500514984131	1748328396.471826
0.7169892191886902	1885072667.6732724
0.7192389369010925	2085837290.6005812
0.7214996814727783	2209214390.1503286
0.723771870136261	2331415137.9978805
0.7260559797286987	2422184230.4046025
0.7283523678779602	2477414439.3823056
0.7306615710258484	2517527384.000452
0.7329838871955872	2509847241.299669
0.7353196740150452	2474221191.938172
0.7376693487167358	2445752753.8501687
0.7400332689285278	2439219103.8872404
0.7424117922782898	2445966419.2984653
0.7448052167892456	2459630878.491562
0.7472138404846191	2483812367.1948185
0.7496379613876343	2514749017.5983014
0.7520779371261597	2552292936.9589076
0.7545340061187744	2599042904.5662613
0.7570064663887024	2657663842.5096107
0.7594954967498779	2713006770.607888
0.7620013952255249	2689644078.958327
0.7645244002342224	2379261135.689985
0.7670646905899048	1983611714.5096352
0.7696225643157959	2028745973.7989635
0.7721980810165405	2459973480.2589674
0.7747915983200073	2833276559.735338
0.7774031162261963	2974802502.6279125
0.7800329327583313	3001356374.9078774
0.7826811671257019	3010119529.1786866
0.7853479981422424	3035401722.5028152
0.7880334854125977	3078100610.6108446
0.7907378077507019	3112110811.261542
0.7934610247612	3140778860.302058
0.7962033748626709	3180791913.901368
0.7989648580551147	3220654766.9498425
0.801745593547821	3246403046.01549
0.8045456409454346	3261756226.2325797
0.8073651194572449	3276284531.403423
0.8102040886878967	3291989274.376443
0.8130625486373901	3291165566.725916
0.8159406185150146	3159608138.9075565
0.8188382983207703	2934740282.830833
0.8217556476593018	3000823814.707818
0.8246926665306091	3255110824.256018
0.8276493549346924	3344346393.311511
0.8306257724761963	3334063394.913901
0.8336219191551208	3294121473.6110573
0.8366377949714661	3201235734.6472664
0.8396733403205872	3080976510.6891336
0.8427285552024841	3021022508.350541
0.8458034992218018	3108333262.5380573
0.8488980531692505	3247905204.2053742
0.8520121574401855	3296498358.4774833
0.8551458716392517	3325565983.7934456
0.8582990765571594	3382376839.722055
0.8614717125892639	3396827531.176172
0.8646637797355652	3337555360.9125695
0.8678751587867737	3266005713.0662436
0.8711057901382446	3270769200.782436
0.8743556141853333	3337516641.8787622
0.87762451171875	3382178160.6394987
0.8809124231338501	3390514713.4591317
0.8842192888259888	3398647084.2885303
0.8875449895858765	3412765732.5296154
0.8908893465995789	3426301198.6305633
0.894252359867096	3449116122.976297
0.8976338505744934	3470596061.829246
0.9010337591171265	3482950306.6855364
0.9044519662857056	3491134713.9939055
0.9078882932662964	3501882559.3739486
0.9113426208496094	3521280504.0749125
0.914814829826355	3542109686.9451814
0.9183048605918884	3564796735.5702214
0.9218124747276306	3606571214.418401
0.925337553024292	3640074201.42365
0.9288799166679382	3638318623.818187
0.9324395060539246	3633713349.9918685
0.9360161423683167	3642293487.302828
0.9396095871925354	3650855569.6951885
0.943219780921936	3657385136.1148024
0.9468464851379395	3663256192.1038218
0.9504896402359009	3656781535.5525217
0.9541489481925964	3626551214.9353623
0.9578243494033813	3579119493.69806
0.9615156054496765	3474695946.875325
0.9652225375175476	3337927452.3234024
0.9689450263977051	3283721355.058695
0.9726828336715698	3315060028.980941
0.9764357805252075	3369762932.0315113
0.9802037477493286	3459761037.701928
0.983986496925354	3563907952.2300735
0.9877838492393494	3521193144.0429068
0.9915955662727356	3340013183.644359
0.9954215884208679	3269601524.0209837
0.9992615580558777	3315028735.7414765
1.0031154155731201	3337017776.570827
1.0069829225540161	3349738033.974774
1.0108637809753418	3371768197.7235465
1.0147579908370972	3379400618.643932
1.018665075302124	3378145917.522642
1.022585153579712	3371008259.834617
1.0265177488327026	3339876075.3703713
1.0304628610610962	3316713632.144742
1.0344202518463135	3314951722.007903
1.0383895635604858	3326010168.3495545
1.0423706769943237	3352227549.572034
1.0463634729385376	3370129174.872331
1.0503677129745483	3370240035.7263317
1.0543830394744873	3372425658.355636
1.058409333229065	3373194494.728807
1.0624464750289917	3373285410.537774
1.0664942264556885	3370558950.0602355
1.0705522298812866	3368299595.373489
1.0746204853057861	3379058767.6663485
1.0786986351013184	3393778351.0607877
1.0827864408493042	3403604053.913264
1.086883783340454	3404136885.481017
1.0909905433654785	3397150227.783318
1.0951062440872192	3381597241.434169
1.0992310047149658	3363897658.8855066
1.10336434841156	3350158968.2366433
1.1075061559677124	3337126657.102268
1.1116561889648438	3324767517.5247617
1.115814208984375	3318779079.944885
1.1199802160263062	3315353202.8246293
1.124153733253479	3313103363.9541636
1.1283347606658936	3307030708.0478134
1.1325229406356812	3270929246.8236227
1.1367181539535522	3174344963.8846602
1.1409201622009277	3109017539.865157
1.145128846168518	3174808410.4934945
1.1493438482284546	3250367520.79851
1.1535650491714478	3255149856.740061
1.1577922105789185	3238151083.9893327
1.1620250940322876	3219774078.8381953
1.1662636995315552	3203160368.6045165
1.170507550239563	3186876488.6632166
1.174756646156311	3164050864.9189134
1.1790107488632202	3143311489.1357036
1.1832695007324219	3143677549.6870704
1.1875330209732056	3142930272.7446446
1.191800832748413	3130488943.175364
1.1960728168487549	3111212577.733655
1.2003488540649414	3105179347.726381
1.2046287059783936	3120123805.9045224
1.2089121341705322	3124787676.8388906
1.2131990194320679	3120524275.861379
1.2174891233444214	3116248033.9435368
1.2217823266983032	3109257856.82493
1.2260783910751343	3101763769.463996
1.230377197265625	3092664909.257887
1.2346785068511963	3079495185.213625
1.238982081413269	3061451179.76666
1.2432878017425537	3044219022.1373982
1.2475954294204712	3034789091.9049582
1.2519049644470215	3025622388.04411
1.256216049194336	3018353034.0159264
1.2605286836624146	3013053255.018406
1.2648425102233887	3003623758.4895906
1.2691574096679688	2994366657.103435
1.2734732627868652	2984620237.0811396
1.2777899503707886	2967998494.236334
1.2821072340011597	2941117561.188014
1.2864248752593994	2923362782.300989
1.2907428741455078	2921552606.5824437
1.2950609922409058	2918819723.810936
1.2993791103363037	2910400644.6605687
1.303696870803833	2896524966.6013517
1.3080145120620728	2873274085.4289966
1.3123314380645752	2843918775.428106
1.3166478872299194	2826769433.2367697
1.3209635019302368	2815778804.1249623
1.3252781629562378	2783706065.8394046
1.3295916318893433	2697876611.5848927
1.3339040279388428	2538049323.0459213
1.3382149934768677	2389641531.193435
1.3425244092941284	2322889454.0036144
1.3468321561813354	2296575349.319798
1.3511382341384888	2276959834.9807973
1.3554422855377197	2267913339.1668005
1.3597444295883179	2275546218.1215205
1.3640443086624146	2292094119.0471525
1.3683418035507202	2307709281.4461718
1.3726370334625244	2318163748.0883985
1.3769296407699585	2324050274.7072244
1.381219506263733	2309723513.3682446
1.3855066299438477	2271810266.126798
1.3897908926010132	2219088783.0609417
1.3940720558166504	2166309946.0268116
1.3983501195907593	2136655183.4846013
1.4026249647140503	2128513007.1717083
1.4068963527679443	2108317098.3535626
1.4111642837524414	2060897245.0218241
1.4154287576675415	2019043031.028891
1.419689416885376	1995075241.8140037
1.4239463806152344	1974482561.3995345
1.4281994104385376	1961465103.9336343
1.4324485063552856	1959637259.161027
1.436693549156189	1955796180.0926387
1.440934419631958	1948783406.4084582
1.4451709985733032	1942996669.4951334
1.449403166770935	1938316776.8746908
1.453631043434143	1935095180.3878176
1.4578542709350586	1929402970.125125
1.4620729684829712	1915253644.7416472
1.4662868976593018	1893726275.7616081
1.4704961776733398	1875766387.8994186
1.4747005701065063	1866788834.3017187
1.4788999557495117	1858278965.996682
1.4830944538116455	1848503864.2822163
1.4872838258743286	1841082236.9702694
1.491468071937561	1833266047.4216068
1.4956470727920532	1826407265.0244045
1.4998208284378052	1819516653.7862313
1.5039892196655273	1812099543.7380624
1.5081522464752197	1804598300.8741643
1.5123097896575928	1795314198.7186997
1.5164618492126465	1785248011.8368113
1.5206083059310913	1777473363.6156301
1.5247491598129272	1768105212.0367217
1.5288842916488647	1755692726.579969
1.5330137014389038	1744392164.3654976
1.5371372699737549	1733877109.8148174
1.541254997253418	1721818003.9355638
1.545366883277893	1710666370.7905612
1.5494728088378906	1701124177.4963062
1.5535727739334106	1689738141.0945973
1.5576666593551636	1678393886.8841045
1.561754584312439	1668121761.0981236
1.5658363103866577	1657931542.4023764
1.5699119567871094	1647287848.1355815
1.5739814043045044	1636895611.282834
1.5780447721481323	1626674428.659179
1.582101821899414	1615620579.2333097
1.5861525535583496	1603779460.9292214
1.5901970863342285	1591453321.2835639
1.5942351818084717	1579567811.5522053
1.5982669591903687	1568398158.7821949
1.6022924184799194	1556147535.678916
1.606311559677124	1543378945.3569002
1.6103241443634033	1530690749.6616008
1.6143304109573364	1518140811.8101487
1.6183301210403442	1505803238.711259
1.6223233938217163	1493598985.7537568
1.6263102293014526	1481723700.9090765
1.6302905082702637	1469587002.6779838
1.634264349937439	1457475567.2043052
1.638231635093689	1445685066.379184
1.6421923637390137	1433785887.3651245
1.646146535873413	1421819658.9665313
1.6500942707061768	1409648111.3221588
1.6540353298187256	1397872687.6063023
1.6579699516296387	1386287990.4343176
1.661897897720337	1374465916.231627
1.6658192873001099	1363327651.3847573
1.6697341203689575	1352804948.8530416
1.6736423969268799	1342547312.0393982
1.677544116973877	1331881270.141169
1.6814392805099487	1320493959.3145294
1.6853278875350952	1308599183.8418646
1.6892099380493164	1296295959.729344
1.6930854320526123	1283712141.8814702
1.696954369544983	1270928747.5836585
1.7008168697357178	1258705897.5602071
1.7046726942062378	1246207320.6891363
1.708522081375122	1232200826.840016
1.712364912033081	1217332898.6060846
1.7162011861801147	1202095318.1920207
1.7200311422348022	1188738176.0167975
1.723854422569275	1177397960.6630254
1.7276713848114014	1164751305.0051932
1.731481909751892	1151046815.1906955
1.7352858781814575	1137551886.150571
1.7390835285186768	1123893546.3640914
1.7428747415542603	1110725157.0547125
1.7466596364974976	1097961901.7607353
1.7504380941390991	1084450190.1259558
1.7542102336883545	1069484010.4252384
1.7579760551452637	1055675395.1777471
1.7617355585098267	1044729023.4051598
1.7654887437820435	1032089050.2309862
1.7692357301712036	1016948314.5026097
1.7729763984680176	1003816418.8329842
1.776710867881775	992262096.6825794
1.7804391384124756	979675701.0199158
1.7841613292694092	965521854.62754
1.7878772020339966	954409725.0445246
1.7915871143341064	946756866.3244495
1.7952908277511597	937762606.5589145
1.7989884614944458	926048898.4957312
1.8026801347732544	915000214.6831304
1.806365728378296	908700647.3514186
1.8100452423095703	903451582.6612959
1.8137187957763672	898819292.5357846
1.817386507987976	890185145.2645378
1.8210482597351074	881773393.1619413
1.8247040510177612	881730630.4597266
1.828354001045227	879523141.232204
1.8319982290267944	872990982.2636814
1.8356364965438843	865927860.4284376
1.8392690420150757	858120226.2468091
1.8428958654403687	846603100.2244848
1.8465168476104736	832595402.8624991
1.8501322269439697	824849330.2004234
1.8537418842315674	815057607.3877388
1.8573459386825562	795770171.4584914
1.860944390296936	786620730.7797165
1.864537239074707	793774506.024847
1.8681244850158691	800087325.345394
1.871706247329712	796909513.5111159
1.8752825260162354	791549379.4727653
1.8788533210754395	792705598.2549803
1.8824186325073242	797898529.4226369
1.8859784603118896	798852374.0853566
1.8895330429077148	792891819.867153
1.8930821418762207	787807683.6817335
1.8966259956359863	788731276.4080698
1.9001644849777222	789716190.7363517
1.9036977291107178	786023329.6707226
1.9072256088256836	781356124.6961479
1.9107483625411987	778568402.8345541
1.9142658710479736	776248288.6338503
1.9177782535552979	770922607.0771234
1.9212853908538818	763093872.7723527
1.9247875213623047	757087844.0915033
1.9282845258712769	748457637.0817021
1.9317764043807983	737985166.8524486
1.9352631568908691	735938417.6436135
1.9387450218200684	732222559.7399299
1.942221760749817	720254834.9672508
1.9456936120986938	708220717.7122217
1.9491604566574097	704061754.0300791
1.952622413635254	704961958.4298913
1.956079363822937	705182649.9796047
1.959531545639038	704902517.9841911
1.962978720664978	702338364.7940234
1.966421127319336	700891716.4488337
1.9698586463928223	697282028.1252168
1.9732913970947266	683796464.4372684
1.9767193794250488	663341090.2253617
1.9801424741744995	656672881.661064
1.9835609197616577	664807406.0433784
1.9869745969772339	665737791.5759112
1.990383505821228	661173256.3819431
1.9937876462936401	661482395.3045021
1.9971871376037598	660923399.1488887
2.000581979751587	658645302.7220633
2.003972291946411	658568771.3582551
2.007357597351074	654306883.7340099
2.0107386112213135	647961602.9612719
2.0141148567199707	646455233.7708176
2.017486572265625	645260341.7420325
2.0208535194396973	644110136.694727
2.0242159366607666	642573341.2754903
2.027573823928833	637063926.0124897
2.0309269428253174	634805808.9823802
2.034275770187378	635504623.4184262
2.0376198291778564	633433044.7155888
2.040959596633911	630733998.3553387
2.044294595718384	627966358.8854696
2.0476250648498535	625549912.5454645
2.0509510040283203	623762600.8830929
2.054272413253784	621849883.2190163
2.057589530944824	621067357.5082613
2.0609018802642822	618274610.4629579
2.0642096996307373	613908206.0436093
2.0675129890441895	613011336.2878608
2.0708119869232178	611948783.7654147
2.074106216430664	608777580.9162787
2.0773961544036865	606924146.7950708
2.080681324005127	605143166.879212
2.0839622020721436	602289115.7006495
2.087238311767578	599788784.6685672
2.090510129928589	598155962.3758994
2.0937774181365967	596188727.6627852
2.0970399379730225	593339720.3669599
2.1002981662750244	591081426.3878919
2.1035518646240234	589134219.714025
2.1068007946014404	586675062.1831152
2.1100454330444336	584279754.1566786
2.1132853031158447	582202095.0929486
2.116520881652832	579731800.1232913
2.1197516918182373	577303279.8546007
2.1229779720306396	575238976.9694562
2.12619948387146	572440128.6542007
2.1294167041778564	569470353.458451
2.132629156112671	567449495.3324559
2.1358368396759033	565303101.6925758
2.139039993286133	562353622.5558553
2.1422386169433594	560020488.3694992
2.145432472229004	558338304.3515795
2.1486217975616455	555587113.4903215
2.151806354522705	552494596.823759
2.1549863815307617	550319028.9813122
2.1581614017486572	548220795.5058247
2.16133189201355	545689905.4554087
2.1644976139068604	543224570.9596274
2.167658567428589	541024936.6827737
2.1708147525787354	538560573.6591691
2.173966407775879	535817857.3498066
2.1771130561828613	533175480.5298802
2.1802549362182617	530808900.7474297
2.183391809463501	528575201.06016314
2.1865241527557373	526268721.24486846
2.1896514892578125	523977043.34725946
2.1927738189697266	521666841.22739756
2.1958916187286377	519402657.0969882
2.1990041732788086	517122790.26823735
2.2021119594573975	514617796.4548232
2.2052149772644043	512186532.5601931
2.208312749862671	510061291.34849936
2.2114057540893555	508061132.94544244
2.214493751525879	505953912.38206065
2.217576742172241	503542673.23353666
2.2206547260284424	501204770.00463325
2.2237277030944824	499366003.6068357
2.2267956733703613	497395728.5728246
2.2298583984375	495175221.70627815
2.2329163551330566	492975914.97398525
2.235969066619873	490781210.00912344
2.2390167713165283	488853234.8061332
2.2420592308044434	486879989.5499504
2.2450966835021973	484844803.8635263
2.248128890991211	482860144.0013932
2.2511560916900635	480816686.9782241
2.254178285598755	478893723.34504145
2.257194995880127	477083567.7087656
2.260206699371338	475174819.9085387
2.2632133960723877	473077361.1032589
2.266214609146118	471190969.84352165
2.2692108154296875	469407452.20854014
2.2722020149230957	467552249.3630753
2.2751877307891846	465921950.6509553
2.278168201446533	464051084.9886379
2.2811436653137207	461996381.1701461
2.284113883972168	460402032.9162346
2.287078857421875	459038288.5621803
2.290038824081421	456883720.3012371
2.2929933071136475	453491802.1658402
2.295942783355713	450501063.3620307
2.298887014389038	448770443.89423174
2.301826238632202	447433884.5594772
2.304760217666626	446059438.5226558
2.3076889514923096	444457614.70649153
2.310612440109253	442775207.73736495
2.3135311603546143	441051945.4892805
2.3164443969726562	439448088.43400425
2.319352865219116	437990655.68572867
2.322256088256836	435872911.17582756
2.3251543045043945	433778974.88311344
2.328047275543213	432343224.0464798
2.330935478210449	430909768.08135957
2.3338186740875244	429695756.4401726
2.3366971015930176	428531347.0182851
2.3395702838897705	426862203.9795767
2.3424389362335205	425042458.09710664
2.3453025817871094	423781481.06042415
2.348161458969116	422897728.60717875
2.351015567779541	420865376.30236477
2.353865146636963	418533139.8763694
2.3567099571228027	416980077.1801839
2.3595502376556396	415518092.4995988
2.3623859882354736	414817620.7338598
2.3652172088623047	414101147.76092815
2.368043899536133	412536330.7944984
2.370866537094116	411578460.3861737
2.3736846446990967	410734673.3975561
2.3764986991882324	408956478.39802045
2.3793084621429443	406982759.6364555
2.3821144104003906	404753388.586383
2.384916305541992	402381762.10851806
2.387714147567749	400878412.0411232
2.3905084133148193	400688369.8104447
2.393299102783203	400419313.90172625
2.3960859775543213	399087505.5487222
2.398869514465332	397154997.0623553
2.4016497135162354	394790966.8830266
2.4044265747070312	392579682.097148
2.407200336456299	390446399.7089113
2.409970998764038	388267149.2274072
2.4127390384674072	386392795.58429044
2.415503978729248	384889012.4755909
2.418266534805298	383228798.24924266
2.4210267066955566	381079189.98855335
2.4237842559814453	378886961.68042576
2.426539897918701	376809055.9645192
2.429293394088745	375317039.8063138
2.4320452213287354	373495309.8775928
2.4347951412200928	370327298.5938315
2.4375438690185547	368427163.8076363
2.440291166305542	367839657.6837483
2.443037271499634	365410326.1516938
2.445782423019409	363156368.81560904
2.4485268592834473	361969025.4650649
2.451270818710327	357908742.9200876
2.454014539718628	353965785.7540286
2.4567582607269287	356590245.5547876
2.4595019817352295	355244672.4296296
2.4622461795806885	351960744.07425416
2.4649908542633057	352972504.9476477
2.4677364826202393	349297403.6705051
2.4704833030700684	346109313.2657424
2.473231554031372	342605624.5196262
2.4759814739227295	340231707.79433703
2.4787333011627197	341522461.1780764
