#wavelength	surface_flux
0.6450077295303345	2469348.3179825633
0.6472567915916443	3748429.8417349514
0.6494921445846558	4567868.973843642
0.6517150402069092	4844266.306362083
0.6539263725280762	5092635.081885063
0.6561272740364075	5322491.087677799
0.6583186388015747	5541413.751275156
0.6605015397071838	5763849.861136274
0.6626768708229065	5978010.7543524
0.6648455858230591	6175942.195092877
0.6670085787773132	6369273.574560761
0.6691668033599854	6545748.000388573
0.6713210344314575	6723310.739758135
0.6734722256660461	6947041.144327344
0.6756211519241333	7162676.058420928
0.6777685880661011	7320191.796177552
0.6799154281616211	7446766.853051267
0.6820623278617859	7552152.221060658
0.6842101216316223	7626984.008868543
0.6863595843315125	7665710.670677787
0.688511312007904	7673066.770273127
0.6906660795211792	7740883.245504424
0.6928245425224304	7931765.834798865
0.6949873566627502	8167368.452592334
0.6971551775932312	8364972.998478929
0.6993286609649658	8573446.331222106
0.7015084028244019	8927305.7095821
0.7036949396133423	9403567.141775925
0.7058889269828796	9714642.3077156
0.7080909013748169	9807575.274226772
0.710301399230957	9930655.848602924
0.712520956993103	10135621.659478415
0.7147500514984131	10367897.622265114
0.7169892191886902	10616360.336995777
0.7192389369010925	10849270.109592479
0.7214996814727783	11055495.107462108
0.723771870136261	11292343.496984802
0.7260559797286987	11554703.474090314
0.7283523678779602	11792539.667837722
0.7306615710258484	11982487.106818972
0.7329838871955872	11927820.174294783
0.7353196740150452	11577014.765437573
0.7376693487167358	11237873.827417795
0.7400332689285278	10952236.188056478
0.7424117922782898	10709070.498814974
0.7448052167892456	10577244.967718558
0.7472138404846191	10501323.59768756
0.7496379613876343	10415262.11084802
0.7520779371261597	10260827.244628072
0.7545340061187744	10025069.253901323
0.7570064663887024	9549709.934895247
0.7594954967498779	8529162.381461129
0.7620013952255249	6517404.599780288
0.7645244002342224	3742194.9961601803
0.7670646905899048	1786439.6827353758
0.7696225643157959	1601723.5812608222
0.7721980810165405	3137054.617627868
0.7747915983200073	6235013.218487953
0.7774031162261963	9256670.15070524
0.7800329327583313	11034058.239963492
0.7826811671257019	12976060.590776786
0.7853479981422424	15149066.932276353
0.7880334854125977	16584051.050830562
0.7907378077507019	17362226.43670757
0.7934610247612	17438785.12663463
0.7962033748626709	18030107.046444215
0.7989648580551147	19693433.409121446
0.801745593547821	21114771.118022483
0.8045456409454346	22072637.79673108
0.8073651194572449	23199724.931583785
0.8102040886878967	24640255.71487324
0.8130625486373901	26146383.73919833
0.8159406185150146	27122439.11507765
0.8188382983207703	27465232.245617155
0.8217556476593018	28450541.463119484
0.8246926665306091	30127179.128377732
0.8276493549346924	31256169.5725002
0.8306257724761963	31969959.76030707
0.8336219191551208	32816680.6173344
0.8366377949714661	33696213.27253184
0.8396733403205872	34342641.994828865
0.8427285552024841	34312060.13350435
0.8458034992218018	33720407.604812846
0.8488980531692505	33327184.38649283
0.8520121574401855	33069887.360103615
0.8551458716392517	33559003.44529635
0.8582990765571594	34233816.86360483
0.8614717125892639	33758877.43730987
0.8646637797355652	33337658.945708178
0.8678751587867737	33768435.703587346
0.8711057901382446	34694182.17964782
0.8743556141853333	36089904.47850262
0.87762451171875	37968733.94500246
0.8809124231338501	40080982.44391066
0.8842192888259888	41866927.97018395
0.8875449895858765	42991056.36318237
0.8908893465995789	43961523.061691135
0.894252359867096	45172964.99940873
0.8976338505744934	47268208.80669336
0.9010337591171265	49693828.07283313
0.9044519662857056	51365395.47896709
0.9078882932662964	53056384.6996901
0.9113426208496094	55114401.02705055
0.914814829826355	57051036.232149564
0.9183048605918884	58399958.42112471
0.9218124747276306	58473257.69649473
0.925337553024292	57716920.078434184
0.9288799166679382	57406038.05290434
0.9324395060539246	58190945.7237838
0.9360161423683167	59891613.500044756
0.9396095871925354	61824181.23511781
0.943219780921936	63755119.03821724
0.9468464851379395	65653522.92204974
0.9504896402359009	67283512.34020302
0.9541489481925964	68493162.67019048
0.9578243494033813	69447661.64194515
0.9615156054496765	70247844.65092342
0.9652225375175476	71281678.3651725
0.9689450263977051	72670460.39948636
0.9726828336715698	73692236.81472878
0.9764357805252075	74670000.94370672
0.9802037477493286	76173498.19679298
0.983986496925354	77623047.48028044
0.9877838492393494	76710109.04462677
0.9915955662727356	72626039.84096266
0.9954215884208679	70359256.35226254
0.9992615580558777	71056838.6503377
1.0031154155731201	72039701.65652522
1.0069829225540161	73585085.61929561
1.0108637809753418	75492121.64102682
1.0147579908370972	77004970.27509698
1.018665075302124	78473376.5512306
1.022585153579712	79923571.7876729
1.0265177488327026	80566440.45783986
1.0304628610610962	81623622.49669415
1.0344202518463135	83891483.89187333
1.0383895635604858	86118006.11229369
1.0423706769943237	87638310.46839291
1.0463634729385376	88718976.00795163
1.0503677129745483	89661273.88161668
1.0543830394744873	90818602.49550307
1.058409333229065	92403729.30432107
1.0624464750289917	94069078.54159965
1.0664942264556885	95574675.00892983
1.0705522298812866	97283155.992725
1.0746204853057861	99181783.5383805
1.0786986351013184	100729812.36508939
1.0827864408493042	102088120.42256962
1.086883783340454	103623023.44652864
1.0909905433654785	105011095.92435935
1.0951062440872192	105612957.5677423
1.0992310047149658	105440987.72377789
1.10336434841156	104589630.54227896
1.1075061559677124	103588408.81498763
1.1116561889648438	103471172.55078901
1.115814208984375	104227171.68617536
1.1199802160263062	105555530.43527906
1.124153733253479	107733860.76703481
1.1283347606658936	109486367.97398922
1.1325229406356812	108770341.29883863
1.1367181539535522	106458306.75679389
1.1409201622009277	106408368.1404789
1.145128846168518	110405527.3632238
1.1493438482284546	114697214.96378216
1.1535650491714478	116311629.1747815
1.1577922105789185	116635059.89303218
1.1620250940322876	116471069.7204566
1.1662636995315552	114462294.73273337
1.170507550239563	112293112.5862477
1.174756646156311	111421909.20304248
1.1790107488632202	112278148.50197315
1.1832695007324219	116647733.80956605
1.1875330209732056	121172839.00945279
1.191800832748413	123084981.6049675
1.1960728168487549	123346678.38730486
1.2003488540649414	123882966.06365488
1.2046287059783936	126210284.9738922
1.2089121341705322	128746991.84912416
1.2131990194320679	130831949.6993566
1.2174891233444214	132534023.33085716
1.2217823266983032	133461707.11924423
1.2260783910751343	134668941.06241003
1.230377197265625	135825677.75359374
1.2346785068511963	135714265.34481525
1.238982081413269	133697206.73224984
1.2432878017425537	131343250.95484804
1.2475954294204712	131356901.66025193
1.2519049644470215	132027801.33761768
1.256216049194336	134245586.0769228
1.2605286836624146	138050017.62244293
1.2648425102233887	140381538.99792203
1.2691574096679688	141814149.66844016
1.2734732627868652	142727501.46433654
1.2777899503707886	143635726.24212873
1.2821072340011597	144536018.72732687
1.2864248752593994	144532461.66664144
1.2907428741455078	144350761.578238
1.2950609922409058	144996025.92158425
1.2993791103363037	146077353.94486308
1.303696870803833	146929363.853682
1.3080145120620728	147100255.0572591
1.3123314380645752	146978948.11333615
1.3166478872299194	147207526.21611208
1.3209635019302368	146897551.38246274
1.3252781629562378	144922899.87666744
1.3295916318893433	139495066.48372954
1.3339040279388428	129209392.64383106
1.3382149934768677	119238039.23016693
1.3425244092941284	114411842.17509104
1.3468321561813354	112180241.97410768
1.3511382341384888	110147564.50719912
1.3554422855377197	109176940.31921014
1.3597444295883179	110768007.23896717
1.3640443086624146	114167821.4340737
1.3683418035507202	116851809.44634536
1.3726370334625244	118726890.31334083
1.3769296407699585	120877697.32752943
1.381219506263733	121391894.8875977
1.3855066299438477	120453050.99539417
1.3897908926010132	119354166.26927865
1.3940720558166504	117780058.29648928
1.3983501195907593	117018898.15590668
1.4026249647140503	117647409.4217925
1.4068963527679443	117689425.2432266
1.4111642837524414	116200339.32077618
1.4154287576675415	115268687.55076687
1.419689416885376	115247934.47071072
1.4239463806152344	115261872.2375165
1.4281994104385376	115970074.72948909
1.4324485063552856	117574822.2458616
1.436693549156189	119186567.43792164
1.440934419631958	120504874.30448632
1.4451709985733032	121954892.67191695
1.449403166770935	124085664.73098618
1.453631043434143	126583954.1486177
1.4578542709350586	128685564.00747001
1.4620729684829712	129788123.53502488
1.4662868976593018	130096506.22849116
1.4704961776733398	130613379.18304572
1.4747005701065063	131746454.72570781
1.4788999557495117	132978003.61143173
1.4830944538116455	134061549.41567749
1.4872838258743286	135199749.15264878
1.491468071937561	136299150.45360246
1.4956470727920532	137507929.45459506
1.4998208284378052	138794995.5646161
1.5039892196655273	140113910.53748327
1.5081522464752197	141359851.51244205
1.5123097896575928	142490977.6110104
1.5164618492126465	143536325.6101233
1.5206083059310913	144777458.8717862
1.5247491598129272	146051452.39243206
1.5288842916488647	147011175.27373198
1.5330137014389038	147979470.09063777
1.5371372699737549	148995308.515238
1.541254997253418	149857391.0500991
1.545366883277893	150755844.77470568
1.5494728088378906	151701541.288773
1.5535727739334106	152362454.4583149
1.5576666593551636	152741677.71122387
1.561754584312439	153327990.80086985
1.5658363103866577	154339782.37218538
1.5699119567871094	155347180.08629158
1.5739814043045044	156101610.17888206
1.5780447721481323	156563816.06425604
1.582101821899414	157055288.26791006
1.5861525535583496	157771184.39886466
1.5901970863342285	158414942.5106565
1.5942351818084717	158881389.9673491
1.5982669591903687	159193301.85594937
1.6022924184799194	159397935.26233804
1.606311559677124	159677551.52979013
1.6103241443634033	159975664.64276034
1.6143304109573364	160252748.46589616
1.6183301210403442	160503076.3101345
1.6223233938217163	160756174.67148945
1.6263102293014526	161072107.75926885
1.6302905082702637	161360289.8555196
1.634264349937439	161696779.59782678
1.638231635093689	162064882.7638066
1.6421923637390137	162337837.97121745
1.646146535873413	162553657.82853562
1.6500942707061768	162613620.12717244
1.6540353298187256	162571122.89646992
1.6579699516296387	162467158.48161012
1.661897897720337	162325070.04342332
1.6658192873001099	162310370.60031715
1.6697341203689575	162267001.91886872
1.6736423969268799	162279529.61363888
1.677544116973877	162455685.54438055
1.6814392805099487	162521679.0022045
1.6853278875350952	162292025.01756305
1.6892099380493164	161869200.8417544
1.6930854320526123	161366092.87081876
1.696954369544983	160808295.80604926
1.7008168697357178	160440433.74446478
1.7046726942062378	160061490.51753545
1.708522081375122	159288697.16161305
1.712364912033081	158202239.85871863
1.7162011861801147	156985346.02770337
1.7200311422348022	156133360.2449782
1.723854422569275	155477436.7923717
1.7276713848114014	154330700.98811123
1.731481909751892	152873254.91973338
1.7352858781814575	151404592.16316745
1.7390835285186768	149861086.08347932
1.7428747415542603	148388057.81974214
1.7466596364974976	147022543.74981776
1.7504380941390991	145619280.8367625
1.7542102336883545	143950330.2590395
1.7579760551452637	142527719.95929593
1.7617355585098267	141683249.0417951
1.7654887437820435	140349514.46833467
1.7692357301712036	138511192.24369222
1.7729763984680176	137035071.25047338
1.776710867881775	135756595.70279548
1.7804391384124756	134143218.55058841
1.7841613292694092	132023427.28225337
1.7878772020339966	130965347.21629503
1.7915871143341064	130627149.812977
1.7952908277511597	129715237.94397569
1.7989884614944458	128070595.09891568
1.8026801347732544	126211515.45314875
1.806365728378296	125626242.95797406
1.8100452423095703	125621594.98686327
1.8137187957763672	126101722.31372629
1.817386507987976	125543811.74302399
1.8210482597351074	124774963.70822209
1.8247040510177612	125943079.71336779
1.828354001045227	126201975.59656577
1.8319982290267944	125731941.90440102
1.8356364965438843	125207948.09979694
1.8392690420150757	124333836.67285158
1.8428958654403687	123384122.80509403
1.8465168476104736	121615699.49465409
1.8501322269439697	120787815.00548187
1.8537418842315674	119672154.08463489
1.8573459386825562	116296785.74846968
1.860944390296936	114368257.3879564
1.864537239074707	115401542.91264732
1.8681244850158691	117383040.9006935
1.871706247329712	119016245.749172
1.8752825260162354	120550563.8831813
1.8788533210754395	123013650.2674961
1.8824186325073242	125547057.781829
1.8859784603118896	126645805.03365934
1.8895330429077148	126727249.4533228
1.8930821418762207	127533240.18684995
1.8966259956359863	129089440.60781589
1.9001644849777222	129628225.29731734
1.9036977291107178	129026614.60689853
1.9072256088256836	128954509.88276416
1.9107483625411987	129226379.4380056
1.9142658710479736	129125807.2976063
1.9177782535552979	128532757.79674385
1.9212853908538818	127053411.95782326
1.9247875213623047	126236769.04553212
1.9282845258712769	126143300.39522079
1.9317764043807983	125315903.75467177
1.9352631568908691	123684588.92841086
1.9387450218200684	120950934.05513775
1.942221760749817	120173076.07466918
1.9456936120986938	121817668.33616875
1.9491604566574097	122511461.20445552
1.952622413635254	121461103.8734222
1.956079363822937	119988048.50099999
1.959531545639038	120074743.72286204
1.962978720664978	120834164.44092402
1.966421127319336	121800775.29223385
1.9698586463928223	122016045.84771134
1.9732913970947266	120420672.90372537
1.9767193794250488	119673205.27751705
1.9801424741744995	120521361.60999435
1.9835609197616577	121985035.96259516
1.9869745969772339	122572560.49905285
1.990383505821228	121250576.84977382
1.9937876462936401	121508514.94111523
1.9971871376037598	122430647.1153367
2.000581979751587	122838819.03709503
2.003972291946411	124369676.3040805
2.007357597351074	124300368.50770944
2.0107386112213135	123820558.57506625
2.0141148567199707	125064182.8988745
2.017486572265625	125757802.20865805
2.0208535194396973	126801238.35472141
2.0242159366607666	127994604.42535211
2.027573823928833	127454463.24611637
2.0309269428253174	127845740.3817437
2.034275770187378	129483473.5283828
2.0376198291778564	130218354.78034684
2.040959596633911	130425975.6531442
2.044294595718384	130791694.55166882
2.0476250648498535	131340528.20311788
2.0509510040283203	131569183.4166076
2.054272413253784	131703520.02397715
2.057589530944824	132490888.3997049
2.0609018802642822	132601408.29117548
2.0642096996307373	132149707.31275041
2.0675129890441895	132619863.51937234
2.0708119869232178	132909704.28949957
2.074106216430664	132640149.12066634
2.0773961544036865	132772505.88725701
2.080681324005127	132990928.74779786
2.0839622020721436	132964628.31373747
2.087238311767578	132995837.22608316
2.090510129928589	133181905.31558496
2.0937774181365967	133237202.1538014
2.0970399379730225	133129998.54861717
2.1002981662750244	133136205.98572204
2.1035518646240234	133131023.53977972
2.1068007946014404	133053784.57046805
2.1100454330444336	133045155.48743568
2.1132853031158447	133107876.7289743
2.116520881652832	132993854.42264234
2.1197516918182373	132868328.08628005
2.1229779720306396	132941871.19618773
2.12619948387146	132835358.41823979
2.1294167041778564	132560666.34793893
2.132629156112671	132523511.62262608
2.1358368396759033	132505342.64390412
2.139039993286133	132193309.76830268
2.1422386169433594	131977863.45439668
2.145432472229004	131974421.88160308
2.1486217975616455	131720267.72831073
2.151806354522705	131315990.93449266
2.1549863815307617	131094325.84361526
2.1581614017486572	130915456.36399172
2.16133189201355	130654749.2395539
2.1644976139068604	130374357.6341938
2.167658567428589	130145718.01038101
2.1708147525787354	129864839.99039377
2.173966407775879	129487823.5777737
2.1771130561828613	129123072.79117261
2.1802549362182617	128884726.94597523
2.183391809463501	128677794.14295024
2.1865241527557373	128400161.6094786
2.1896514892578125	128178694.76915722
2.1927738189697266	127920156.47568764
2.1958916187286377	127582720.53751317
2.1990041732788086	127267490.44848697
2.2021119594573975	126935857.27035719
2.2052149772644043	126673597.14963655
2.208312749862671	126521773.06096904
2.2114057540893555	126401494.64823678
2.214493751525879	126229803.62624459
2.217576742172241	125830553.8756273
2.2206547260284424	125428334.04422788
2.2237277030944824	125394379.23356687
2.2267956733703613	125357217.66595778
2.2298583984375	125182413.81171867
2.2329163551330566	124996305.6075177
2.235969066619873	124760871.67833863
2.2390167713165283	124618315.52837315
2.2420592308044434	124411894.71873476
2.2450966835021973	124217747.08563389
2.248128890991211	124110153.75405096
2.2511560916900635	123958278.00232731
2.254178285598755	123809338.7964234
2.257194995880127	123684477.5906478
2.260206699371338	123473448.86828892
2.2632133960723877	122956627.63223611
2.266214609146118	122390495.51447259
2.2692108154296875	121961091.348131
2.2722020149230957	121652146.83188748
2.2751877307891846	121527805.54154602
2.278168201446533	121116470.93579419
2.2811436653137207	120502211.68645829
2.284113883972168	120298438.34850895
2.287078857421875	120245945.05465142
2.290038824081421	119016389.41854985
2.2929933071136475	115362288.11378424
2.295942783355713	111652228.61490318
2.298887014389038	110426558.91994986
2.301826238632202	110567724.99217209
2.304760217666626	110792696.10702845
2.3076889514923096	110658827.07432327
2.310612440109253	110512383.1225128
2.3135311603546143	110509880.15678276
2.3164443969726562	110517480.91728164
2.319352865219116	110373497.16689205
2.322256088256836	109199691.98180017
2.3251543045043945	108073939.1344241
2.328047275543213	108028921.02299008
2.330935478210449	108247330.38979982
2.3338186740875244	108656119.35359628
2.3366971015930176	108957395.57764298
2.3395702838897705	108702925.96896397
2.3424389362335205	108552632.42301716
2.3453025817871094	109199643.43640122
2.348161458969116	109896040.21446802
2.351015567779541	109111211.07643035
2.353865146636963	107861280.09391622
2.3567099571228027	107392122.7960892
2.3595502376556396	107093405.05217753
2.3623859882354736	106998438.80233613
2.3652172088623047	106941753.04034741
2.368043899536133	106719183.55339265
2.370866537094116	106782364.90832347
2.3736846446990967	107222593.96385735
2.3764986991882324	107194077.32174648
2.3793084621429443	106450958.77343304
2.3821144104003906	105463206.83865835
2.384916305541992	104490141.76288934
2.387714147567749	104255157.0555011
2.3905084133148193	104857194.70241858
2.393299102783203	105018765.24829702
2.3960859775543213	104732935.27682544
2.398869514465332	104662722.83647715
2.4016497135162354	104220009.71320944
2.4044265747070312	103602005.91956756
2.407200336456299	102896702.48583634
2.409970998764038	102214156.26597309
2.4127390384674072	101773413.32128227
2.415503978729248	101181307.9720942
2.418266534805298	100425576.68684927
2.4210267066955566	100010334.93445677
2.4237842559814453	99933559.95410973
2.426539897918701	99431073.13070714
2.429293394088745	98819135.4324636
2.4320452213287354	97952363.96854223
2.4347951412200928	96452016.11177099
2.4375438690185547	96188049.0603263
2.440291166305542	96691725.06325172
2.443037271499634	95494833.55839811
2.445782423019409	93966492.14872114
2.4485268592834473	93576357.66561326
2.451270818710327	91852654.61214668
2.454014539718628	90069020.8726357
2.4567582607269287	92356553.18141665
2.4595019817352295	92349116.68669145
2.4622461795806885	90833502.33731528
2.4649908542633057	91677386.40915346
2.4677364826202393	89635305.59731093
2.4704833030700684	87408587.07015759
2.473231554031372	85581594.06965968
