#wavelength	surface_flux
0.6450077295303345	106.8516556057061
0.6472567915916443	167.4946621962797
0.6494921445846558	214.40025919295914
0.6517150402069092	238.61288360536366
0.6539263725280762	265.36371929908415
0.6561272740364075	291.17186877583333
0.6583186388015747	315.52849413814005
0.6605015397071838	353.1440964993204
0.6626768708229065	402.86350366174594
0.6648455858230591	455.1374815896269
0.6670085787773132	509.3833764222514
0.6691668033599854	563.4970541396357
0.6713210344314575	615.3478662784382
0.6734722256660461	677.362389116836
0.6756211519241333	744.9255537798746
0.6777685880661011	800.0930145310497
0.6799154281616211	864.8345326098248
0.6820623278617859	925.938304745331
0.6842101216316223	968.7540545944987
0.6863595843315125	1017.4163442481315
0.688511312007904	1060.5538302301097
0.6906660795211792	1042.751037983232
0.6928245425224304	990.0584124435143
0.6949873566627502	1018.9721010622774
0.6971551775932312	1079.4835007182644
0.6993286609649658	1113.4396885991318
0.7015084028244019	1204.7471708792298
0.7036949396133423	1321.4105144725359
0.7058889269828796	1394.2237044230774
0.7080909013748169	1411.895825624068
0.710301399230957	1417.2036272238288
0.712520956993103	1466.2974195936463
0.7147500514984131	1474.7765862952506
0.7169892191886902	1414.3749681730533
0.7192389369010925	1406.3673559576293
0.7214996814727783	1485.9290780298998
0.723771870136261	1580.4964970359797
0.7260559797286987	1636.9075221191383
0.7283523678779602	1663.1170051348909
0.7306615710258484	1687.2628984953567
0.7329838871955872	1728.2127338310902
0.7353196740150452	1786.4411706177355
0.7376693487167358	1830.0038794599195
0.7400332689285278	1863.7955733754975
0.7424117922782898	1943.0562022140948
0.7448052167892456	2037.6914263547326
0.7472138404846191	2112.9787324828885
0.7496379613876343	2170.422702633067
0.7520779371261597	2191.426182743867
0.7545340061187744	2176.734062682692
0.7570064663887024	2150.5470286052027
0.7594954967498779	2118.5400299814205
0.7620013952255249	1902.0876883458423
0.7645244002342224	1314.217914507544
0.7670646905899048	740.3106707553554
0.7696225643157959	748.2900641186517
0.7721980810165405	1392.657083724181
0.7747915983200073	2300.1107127677765
0.7774031162261963	3008.4968419702277
0.7800329327583313	3460.656783627044
0.7826811671257019	3931.52999042401
0.7853479981422424	4457.569315207431
0.7880334854125977	5008.332334678525
0.7907378077507019	5602.816754128086
0.7934610247612	6085.077849015084
0.7962033748626709	6648.43401678874
0.7989648580551147	7532.189998213679
0.801745593547821	8472.894719635402
0.8045456409454346	9291.041662251506
0.8073651194572449	9884.584073985485
0.8102040886878967	10148.218060207515
0.8130625486373901	10536.21873518063
0.8159406185150146	11676.619726731567
0.8188382983207703	13397.551043782407
0.8217556476593018	14924.960211098845
0.8246926665306091	16567.73039397253
0.8276493549346924	18667.696143356698
0.8306257724761963	20756.8079188057
0.8336219191551208	23184.29886105262
0.8366377949714661	26311.992403523578
0.8396733403205872	30103.166759102984
0.8427285552024841	34787.69171896546
0.8458034992218018	40196.889856306494
0.8488980531692505	45064.28103362565
0.8520121574401855	49959.499078088054
0.8551458716392517	58803.91764403548
0.8582990765571594	70695.49606947084
0.8614717125892639	82463.52718621609
0.8646637797355652	94857.45556196434
0.8678751587867737	108497.20406679706
0.8711057901382446	123466.58311785024
0.8743556141853333	139909.0495958148
0.87762451171875	158587.257653702
0.8809124231338501	180791.39378744824
0.8842192888259888	205746.50352708474
0.8875449895858765	222359.86721183348
0.8908893465995789	211119.02434321464
0.894252359867096	192290.71490383407
0.8976338505744934	215773.8697938499
0.9010337591171265	278208.2357923231
0.9044519662857056	343619.27571424015
0.9078882932662964	384393.8802365865
0.9113426208496094	395076.7951714871
0.914814829826355	396414.4202366913
0.9183048605918884	428753.56092625705
0.9218124747276306	467916.97368529177
0.925337553024292	389655.64423130924
0.9288799166679382	219680.19166009082
0.9324395060539246	128785.70823482773
0.9360161423683167	144421.42462583346
0.9396095871925354	200446.20976452067
0.943219780921936	255845.54173595412
0.9468464851379395	287373.24926107423
0.9504896402359009	303998.01914784044
0.9541489481925964	319400.4382373579
0.9578243494033813	326028.3222307526
0.9615156054496765	369929.7607569808
0.9652225375175476	479635.09031490854
0.9689450263977051	595161.5674119067
0.9726828336715698	682166.1917032792
0.9764357805252075	773029.9138131038
0.9802037477493286	889831.5862941608
0.983986496925354	1045301.1091775672
0.9877838492393494	1292142.1817258382
0.9915955662727356	1609569.7351164636
0.9954215884208679	1964591.757686928
0.9992615580558777	2368662.5484929127
1.0031154155731201	2836863.479595763
1.0069829225540161	3394707.6387431705
1.0108637809753418	4034242.1206585034
1.0147579908370972	4721904.068190261
1.018665075302124	5409600.81138696
1.022585153579712	6075057.166700462
1.0265177488327026	6751851.509403393
1.0304628610610962	7453592.242745651
1.0344202518463135	8139379.9798963275
1.0383895635604858	8746250.05419123
1.0423706769943237	9202738.499294331
1.0463634729385376	9525405.119485034
1.0503677129745483	9814209.794480707
1.0543830394744873	10053800.428895555
1.058409333229065	10171818.363644397
1.0624464750289917	10263315.068081472
1.0664942264556885	10311218.327241456
1.0705522298812866	10275824.467851885
1.0746204853057861	10258956.057281723
1.0786986351013184	10182833.956740245
1.0827864408493042	9692383.070300339
1.086883783340454	8084634.513461427
1.0909905433654785	5389733.544364463
1.0951062440872192	3040845.6420431505
1.0992310047149658	1892039.3488607816
1.10336434841156	1357080.8974896173
1.1075061559677124	898958.6579066393
1.1116561889648438	500156.3313262264
1.115814208984375	244794.7923670126
1.1199802160263062	117899.61549697134
1.124153733253479	54426.31416638408
1.1283347606658936	38162.15246934177
1.1325229406356812	35052.45623292537
1.1367181539535522	38944.86539433027
1.1409201622009277	55284.274172107405
1.145128846168518	47285.37404068402
1.1493438482284546	20010.858199242743
1.1535650491714478	6925.497843383906
1.1577922105789185	5423.275994598569
1.1620250940322876	5276.726881560818
1.1662636995315552	5530.394291086149
1.170507550239563	10342.93782141225
1.174756646156311	20918.97849086888
1.1790107488632202	44641.654208036394
1.1832695007324219	84903.95314313607
1.1875330209732056	160983.9872536734
1.191800832748413	392140.01282046165
1.1960728168487549	818479.0506120165
1.2003488540649414	1374845.4664744432
1.2046287059783936	2223455.11765746
1.2089121341705322	3345146.8630912425
1.2131990194320679	4600602.074923403
1.2174891233444214	6013940.178009466
1.2217823266983032	7258046.890436316
1.2260783910751343	8257188.929256587
1.230377197265625	9189796.035595665
1.2346785068511963	10364904.104694849
1.238982081413269	11896176.254589297
1.2432878017425537	13485129.25814875
1.2475954294204712	15038413.236528656
1.2519049644470215	16087143.116660083
1.256216049194336	17062865.27970828
1.2605286836624146	17765315.948145367
1.2648425102233887	17387675.056496587
1.2691574096679688	16531988.712020861
1.2734732627868652	15758238.259884989
1.2777899503707886	15118301.124925524
1.2821072340011597	14043054.91198047
1.2864248752593994	12356615.173309533
1.2907428741455078	10875157.896364998
1.2950609922409058	10064123.237609895
1.2993791103363037	9241089.298108999
1.303696870803833	7566283.611495913
1.3080145120620728	5269467.072327027
1.3123314380645752	3561143.1564715495
1.3166478872299194	3041072.294231366
1.3209635019302368	3068882.041418434
1.3252781629562378	2589471.3761809706
1.3295916318893433	1389791.042731938
1.3339040279388428	387059.69963025674
1.3382149934768677	66342.70076535095
1.3425244092941284	31648.19297942755
1.3468321561813354	11542.561893807202
1.3511382341384888	4202.298996629378
1.3554422855377197	2269.410274544773
1.3597444295883179	1794.6077840148419
1.3640443086624146	2392.150144072696
1.3683418035507202	2920.588672963144
1.3726370334625244	3064.4882297664694
1.3769296407699585	3533.7995835989386
1.381219506263733	3481.8841322692615
1.3855066299438477	3195.467038853811
1.3897908926010132	3822.755840825284
1.3940720558166504	4494.546640556883
1.3983501195907593	4538.463592876733
1.4026249647140503	4361.368648599325
1.4068963527679443	4162.90073054934
1.4111642837524414	4572.973480834178
1.4154287576675415	6127.059171321705
1.419689416885376	7168.0846524076605
1.4239463806152344	8215.015702975705
1.4281994104385376	12292.424636080023
1.4324485063552856	17623.994725016295
1.436693549156189	23129.58948139259
1.440934419631958	31801.676051494447
1.4451709985733032	47299.04366760923
1.449403166770935	76315.71887237279
1.453631043434143	112612.16146675636
1.4578542709350586	146966.82339911777
1.4620729684829712	174396.599522362
1.4662868976593018	177943.89912805086
1.4704961776733398	156477.77299784092
1.4747005701065063	158497.503569839
1.4788999557495117	191227.10342366612
1.4830944538116455	231357.45311358603
1.4872838258743286	290379.4344186151
1.491468071937561	355625.50403223454
1.4956470727920532	424514.183740037
1.4998208284378052	507702.32230983634
1.5039892196655273	597288.0144068062
1.5081522464752197	705092.8673351082
1.5123097896575928	840935.997004094
1.5164618492126465	966554.4424939447
1.5206083059310913	1135512.1928581737
1.5247491598129272	1432331.0610023823
1.5288842916488647	1765783.5170141382
1.5330137014389038	2052419.4502577665
1.5371372699737549	2341767.8641781374
1.541254997253418	2724576.613912279
1.545366883277893	3223490.9905354893
1.5494728088378906	3694541.3894333025
1.5535727739334106	3960398.793740844
1.5576666593551636	3900035.5515806694
1.561754584312439	3903924.3133859113
1.5658363103866577	4276061.099632205
1.5699119567871094	4627670.077619471
1.5739814043045044	4696695.260454045
1.5780447721481323	4252404.307630251
1.582101821899414	3553293.959037113
1.5861525535583496	3179432.588817761
1.5901970863342285	2986451.488974282
1.5942351818084717	2747627.2820303054
1.5982669591903687	2499183.756444159
1.6022924184799194	2108392.093999739
1.606311559677124	1629782.0110480995
1.6103241443634033	1249174.6848638128
1.6143304109573364	907708.0150645436
1.6183301210403442	687217.86142424
1.6223233938217163	809749.800328027
1.6263102293014526	1015452.5726778769
1.6302905082702637	902763.6504139153
1.634264349937439	665403.958898859
1.638231635093689	579612.292267715
1.6421923637390137	537724.2962893768
1.646146535873413	451422.79001743824
1.6500942707061768	474961.8588219001
1.6540353298187256	517542.43282469775
1.6579699516296387	428693.6631162191
1.661897897720337	355870.2004085416
1.6658192873001099	266823.4389091753
1.6697341203689575	155586.40814609302
1.6736423969268799	186698.065188228
1.677544116973877	281179.0845890568
1.6814392805099487	271690.62460405903
1.6853278875350952	174250.41800906308
1.6892099380493164	101207.45778777613
1.6930854320526123	77193.65061821444
1.696954369544983	68534.92541183539
1.7008168697357178	71418.5085770578
1.7046726942062378	86381.17410920178
1.708522081375122	106352.14570844338
1.712364912033081	144110.9175904547
1.7162011861801147	199606.45553201894
1.7200311422348022	205184.5137137253
1.723854422569275	155935.0716059806
1.7276713848114014	144765.26538736635
1.731481909751892	180207.57768853017
1.7352858781814575	203699.74611318688
1.7390835285186768	197006.12471586553
1.7428747415542603	178263.40731655527
1.7466596364974976	172400.4725016996
1.7504380941390991	189481.57553078936
1.7542102336883545	210787.4323626306
1.7579760551452637	235715.66844934985
1.7617355585098267	247640.4484762856
1.7654887437820435	219554.45761764178
1.7692357301712036	169089.99610253322
1.7729763984680176	132045.2289584002
1.776710867881775	132270.8065814877
1.7804391384124756	144633.92006552723
1.7841613292694092	135988.42087476558
1.7878772020339966	124185.14734780614
1.7915871143341064	114675.66764548118
1.7952908277511597	116563.9680781215
1.7989884614944458	124677.94475487368
1.8026801347732544	101340.78362227576
1.806365728378296	82182.03099283855
1.8100452423095703	93653.29777032245
1.8137187957763672	108542.8790068224
1.817386507987976	104679.71450853389
1.8210482597351074	114558.99816348057
1.8247040510177612	139236.529806901
1.828354001045227	117143.4364975448
1.8319982290267944	80497.2887059416
1.8356364965438843	64109.183524537555
1.8392690420150757	62916.781966867755
1.8428958654403687	83741.77284346995
1.8465168476104736	92666.7337583762
1.8501322269439697	90672.49392206215
1.8537418842315674	92758.3035237423
1.8573459386825562	80104.30854821837
1.860944390296936	62852.51841195295
1.864537239074707	51370.00214081175
1.8681244850158691	41355.96810747889
1.871706247329712	42851.59687381688
1.8752825260162354	72608.2105818551
1.8788533210754395	130917.62359102773
1.8824186325073242	178574.6193989056
1.8859784603118896	191958.89285547772
1.8895330429077148	192037.3780614408
1.8930821418762207	216435.81289924745
1.8966259956359863	233513.36063978734
1.9001644849777222	186720.00194475814
1.9036977291107178	150234.2696457248
1.9072256088256836	166608.48304408148
1.9107483625411987	164515.13567309265
1.9142658710479736	151139.37490539078
1.9177782535552979	169346.14405453502
1.9212853908538818	169108.33662944834
1.9247875213623047	142568.74215736534
1.9282845258712769	117885.11056053653
1.9317764043807983	100095.79832909764
1.9352631568908691	92976.31737968215
1.9387450218200684	86509.57186993305
1.942221760749817	92520.86577656741
1.9456936120986938	104515.08553669439
1.9491604566574097	113388.15428870704
1.952622413635254	116823.53645053279
1.956079363822937	114770.56959051163
1.959531545639038	129439.13914922238
1.962978720664978	154848.72779208797
1.966421127319336	181703.65679647442
1.9698586463928223	199792.62760887502
1.9732913970947266	210248.4066671999
1.9767193794250488	238645.25649560138
1.9801424741744995	267355.58172321966
1.9835609197616577	296809.3846913278
1.9869745969772339	316894.58036090777
1.990383505821228	322080.8643346384
1.9937876462936401	353836.9994584658
1.9971871376037598	367743.4801988155
2.000581979751587	348391.1315153855
2.003972291946411	336797.35716550937
2.007357597351074	343124.2165645761
2.0107386112213135	370686.8947175388
2.0141148567199707	380450.77579793497
2.017486572265625	363545.546594458
2.0208535194396973	389887.0718586718
2.0242159366607666	443212.0865631357
2.027573823928833	458933.4227744277
2.0309269428253174	486705.51659950375
2.034275770187378	559338.6571745912
2.0376198291778564	610301.7735463943
2.040959596633911	621590.2048102159
2.044294595718384	665511.8334646062
2.0476250648498535	724581.5817367783
2.0509510040283203	724451.559254995
2.054272413253784	725508.091591038
2.057589530944824	779258.7911210653
2.0609018802642822	804188.6283338936
2.0642096996307373	781908.4464648147
2.0675129890441895	760365.2443810524
2.0708119869232178	746316.824344487
2.074106216430664	747856.9848794336
2.0773961544036865	759746.5891386337
2.080681324005127	770314.1241078456
2.0839622020721436	773302.3216390272
2.087238311767578	771801.3399469253
2.090510129928589	767515.1538317096
2.0937774181365967	757218.9175183647
2.0970399379730225	751742.7105275061
2.1002981662750244	742715.6830839275
2.1035518646240234	732343.6875116477
2.1068007946014404	731176.1804907122
2.1100454330444336	722121.219112759
2.1132853031158447	702259.5884639546
2.116520881652832	677728.0699978096
2.1197516918182373	660159.9203138333
2.1229779720306396	653509.2620336547
2.12619948387146	642234.8206688383
2.1294167041778564	626912.1518267873
2.132629156112671	616156.9938616583
2.1358368396759033	603604.4378242325
2.139039993286133	579262.8435609769
2.1422386169433594	538930.9360195068
2.145432472229004	501587.0612622284
2.1486217975616455	489878.94529432023
2.151806354522705	484363.9134727923
2.1549863815307617	470655.54418255173
2.1581614017486572	450996.79364319437
2.16133189201355	423170.8435553755
2.1644976139068604	396521.5600538079
2.167658567428589	375574.36703333375
2.1708147525787354	367919.92907408165
2.173966407775879	369200.7816884892
2.1771130561828613	367833.072685331
2.1802549362182617	363392.10799611564
2.183391809463501	346210.41790899896
2.1865241527557373	320388.38401552686
2.1896514892578125	286343.6373941841
2.1927738189697266	233120.7332087423
2.1958916187286377	160738.92780189586
2.1990041732788086	91205.46525140424
2.2021119594573975	55553.51114299038
2.2052149772644043	53617.882417980385
2.208312749862671	70306.11340615792
2.2114057540893555	95834.154861352
2.214493751525879	118481.18000158928
2.217576742172241	130587.53559257681
2.2206547260284424	131100.23461602922
2.2237277030944824	123909.54569355777
2.2267956733703613	112221.49910815446
2.2298583984375	100530.80879599664
2.2329163551330566	93144.18087816752
2.235969066619873	85716.59606189057
2.2390167713165283	74225.59850791525
2.2420592308044434	65126.8882372942
2.2450966835021973	57825.01708425356
2.248128890991211	49854.48372090017
2.2511560916900635	46980.81307430184
2.254178285598755	48180.10317976284
2.257194995880127	49373.46914130565
2.260206699371338	51258.45745851925
2.2632133960723877	54283.647568507455
2.266214609146118	55746.89836595452
2.2692108154296875	55491.521943836495
2.2722020149230957	55769.62174274092
2.2751877307891846	55203.0322239035
2.278168201446533	54330.26619558166
2.2811436653137207	51455.24265861466
2.284113883972168	43930.12613148438
2.287078857421875	37297.676147510196
2.290038824081421	32086.138542304714
2.2929933071136475	27828.085701373817
2.295942783355713	27258.54121989884
2.298887014389038	30924.981367370285
2.301826238632202	35920.12992893789
2.304760217666626	42314.89964018333
2.3076889514923096	56255.76955078101
2.310612440109253	73185.67306852258
2.3135311603546143	74205.34362634874
2.3164443969726562	48452.26417700748
2.319352865219116	22034.697938063648
2.322256088256836	16687.73944164761
2.3251543045043945	19935.72397382567
2.328047275543213	23205.296545336598
2.330935478210449	25924.874879166768
2.3338186740875244	26628.989417181758
2.3366971015930176	27110.10539441229
2.3395702838897705	29288.698990192464
2.3424389362335205	31344.89975772169
2.3453025817871094	31010.919435709468
2.348161458969116	30009.48416513062
2.351015567779541	30143.377190634586
2.353865146636963	31611.567490173093
2.3567099571228027	35558.481214490756
2.3595502376556396	41269.56731967431
2.3623859882354736	46311.68193778452
2.3652172088623047	47961.646073738986
2.368043899536133	42624.20946226786
2.370866537094116	30410.535516784254
2.3736846446990967	24657.654863126205
2.3764986991882324	28333.84548575737
2.3793084621429443	30638.348239965984
2.3821144104003906	30988.1833858659
2.384916305541992	36071.77889999302
2.387714147567749	45272.18573166478
2.3905084133148193	49682.92235271584
2.393299102783203	51675.93420484733
2.3960859775543213	56950.00414803589
2.398869514465332	64902.54837046208
2.4016497135162354	74427.76591105122
2.4044265747070312	82015.73143288054
2.407200336456299	82948.15885780485
2.409970998764038	86428.1324854012
2.4127390384674072	94201.17583814319
2.415503978729248	90165.3480597674
2.418266534805298	82306.06420070515
2.4210267066955566	81704.68293617344
2.4237842559814453	75395.77214981685
2.426539897918701	74187.45964388875
2.429293394088745	91059.73125013971
2.4320452213287354	100802.08833799617
2.4347951412200928	92705.98221198384
2.4375438690185547	100752.48670099283
2.440291166305542	124312.32261170496
2.443037271499634	128334.01057118074
2.445782423019409	120458.55380664473
2.4485268592834473	118897.67288277872
2.451270818710327	119438.05446085737
2.454014539718628	125444.97073478
2.4567582607269287	142559.70172776043
2.4595019817352295	152987.39317509087
2.4622461795806885	160687.91850338576
2.4649908542633057	175133.01721509063
2.4677364826202393	168097.15380263948
2.4704833030700684	151201.06937140258
2.473231554031372	142810.69140534257
2.4759814739227295	140550.1212802838
2.4787333011627197	142119.51221088585
2.481487512588501	143644.63841466504
