#wavelength	surface_flux
0.6450077295303345	163.88013903113546
0.6472567915916443	260.3577488475045
0.6494921445846558	343.43940233633884
0.6517150402069092	399.2984018857213
0.6539263725280762	463.2793478670526
0.6561272740364075	533.4416798237174
0.6583186388015747	611.5700639668272
0.6605015397071838	715.0064952319416
0.6626768708229065	843.1667480282056
0.6648455858230591	986.1298562527994
0.6670085787773132	1145.158937607165
0.6691668033599854	1317.6530995378478
0.6713210344314575	1501.5326154073502
0.6734722256660461	1717.8622579667156
0.6756211519241333	1954.7556691117602
0.6777685880661011	2175.7885420489956
0.6799154281616211	2404.1171332974404
0.6820623278617859	2603.5658288813706
0.6842101216316223	2735.942672221463
0.6863595843315125	2816.516050585276
0.688511312007904	2819.628208981134
0.6906660795211792	2693.2651180747057
0.6928245425224304	2518.004684940341
0.6949873566627502	2490.9144160385854
0.6971551775932312	2551.3481468949167
0.6993286609649658	2628.368738155425
0.7015084028244019	2840.7262191492414
0.7036949396133423	3101.4447424951163
0.7058889269828796	3261.745309720443
0.7080909013748169	3303.945001433938
0.710301399230957	3334.419366985614
0.712520956993103	3441.6505564931567
0.7147500514984131	3461.2163959062846
0.7169892191886902	3333.9029758495185
0.7192389369010925	3255.757070741887
0.7214996814727783	3294.886828127295
0.723771870136261	3341.648364231235
0.7260559797286987	3312.4964677685966
0.7283523678779602	3233.665695830103
0.7306615710258484	3164.209889187573
0.7329838871955872	3109.8769419462833
0.7353196740150452	3061.1228586346306
0.7376693487167358	2999.937579232232
0.7400332689285278	2924.4769175460397
0.7424117922782898	2890.976571232422
0.7448052167892456	2880.4454505774925
0.7472138404846191	2853.9524849168174
0.7496379613876343	2806.697927812265
0.7520779371261597	2733.990471102779
0.7545340061187744	2647.2752829152037
0.7570064663887024	2564.1043678928236
0.7594954967498779	2508.0762825116453
0.7620013952255249	2380.8014763852366
0.7645244002342224	2019.7071635938426
0.7670646905899048	1653.5561155024914
0.7696225643157959	1714.2823249450457
0.7721980810165405	2213.1047179718457
0.7747915983200073	2901.714328457565
0.7774031162261963	3533.9198443182295
0.7800329327583313	4084.1717869739387
0.7826811671257019	4805.454649388039
0.7853479981422424	5710.830299352353
0.7880334854125977	6732.137796368129
0.7907378077507019	7846.237908046945
0.7934610247612	8835.166505315156
0.7962033748626709	10312.886042733757
0.7989648580551147	12754.223131291923
0.801745593547821	15375.916379682934
0.8045456409454346	17876.140733745313
0.8073651194572449	20365.678473305597
0.8102040886878967	22650.028892681174
0.8130625486373901	25238.593099485985
0.8159406185150146	29144.97571584714
0.8188382983207703	34281.40058520499
0.8217556476593018	39545.207161968305
0.8246926665306091	45462.1930719964
0.8276493549346924	52547.256311963356
0.8306257724761963	60184.66105819933
0.8336219191551208	69140.03248935894
0.8366377949714661	79886.97625173998
0.8396733403205872	92402.40896231672
0.8427285552024841	107514.41690446397
0.8458034992218018	125116.44912940112
0.8488980531692505	140600.07053205045
0.8520121574401855	155897.1188073302
0.8551458716392517	187062.56323736373
0.8582990765571594	229536.93822494693
0.8614717125892639	269612.45647669915
0.8646637797355652	311351.2300104095
0.8678751587867737	357934.4865279032
0.8711057901382446	409322.684874189
0.8743556141853333	464691.8047842686
0.87762451171875	524397.1854548679
0.8809124231338501	591420.197040347
0.8842192888259888	665381.2989446488
0.8875449895858765	719483.7227240154
0.8908893465995789	699214.1264307441
0.894252359867096	656275.370017948
0.8976338505744934	732739.5781449671
0.9010337591171265	906780.3560810654
0.9044519662857056	1073543.5143243966
0.9078882932662964	1182257.4678301157
0.9113426208496094	1223111.660086304
0.914814829826355	1239685.1970071313
0.9183048605918884	1317170.7224128547
0.9218124747276306	1404719.892484393
0.925337553024292	1224707.3033601115
0.9288799166679382	825267.3806884801
0.9324395060539246	616119.570276127
0.9360161423683167	674113.1533610314
0.9396095871925354	838109.840910572
0.943219780921936	1006831.6475795034
0.9468464851379395	1110297.8366680632
0.9504896402359009	1164640.7284902807
0.9541489481925964	1209728.1691800256
0.9578243494033813	1232255.7817435027
0.9615156054496765	1327126.1712061064
0.9652225375175476	1551192.1996906775
0.9689450263977051	1779014.164631011
0.9726828336715698	1952080.6934766897
0.9764357805252075	2134169.4817907056
0.9802037477493286	2355962.1627162304
0.983986496925354	2634248.5660698363
0.9877838492393494	3042884.6702864575
0.9915955662727356	3518035.639622282
0.9954215884208679	3983960.5248283576
0.9992615580558777	4461343.930252323
1.0031154155731201	4991832.004272438
1.0069829225540161	5620393.78583781
1.0108637809753418	6322725.130586375
1.0147579908370972	7046448.709979436
1.018665075302124	7748960.5940931635
1.022585153579712	8409918.078759799
1.0265177488327026	9054906.747421209
1.0304628610610962	9708625.472085057
1.0344202518463135	10346425.398501495
1.0383895635604858	10920315.200536374
1.0423706769943237	11380941.433456706
1.0463634729385376	11736884.511473862
1.0503677129745483	12049925.428575408
1.0543830394744873	12320444.49906295
1.058409333229065	12526049.55756185
1.0624464750289917	12742738.522901904
1.0664942264556885	12936609.254396623
1.0705522298812866	13062955.449428882
1.0746204853057861	13200853.291092087
1.0786986351013184	13286598.801748369
1.0827864408493042	13002715.265662463
1.086883783340454	11653333.281532442
1.0909905433654785	9017582.145115132
1.0951062440872192	6350993.968313129
1.0992310047149658	4807590.010372703
1.10336434841156	3978808.1893862435
1.1075061559677124	3174954.7677478683
1.1116561889648438	2301028.8979821675
1.115814208984375	1579638.0330569537
1.1199802160263062	1077707.5082420893
1.124153733253479	762577.4479717906
1.1283347606658936	677799.2029707226
1.1325229406356812	619964.9027550785
1.1367181539535522	635013.2629662462
1.1409201622009277	818056.8032082904
1.145128846168518	774030.1930847431
1.1493438482284546	483245.3245649127
1.1535650491714478	279342.7587015947
1.1577922105789185	233399.26166396617
1.1620250940322876	222958.9888506024
1.1662636995315552	233422.7516207208
1.170507550239563	357444.6469487472
1.174756646156311	561093.7371350597
1.1790107488632202	885183.780666714
1.1832695007324219	1315541.3065692831
1.1875330209732056	1805403.5461536401
1.191800832748413	2764878.6502371826
1.1960728168487549	4188683.7984704915
1.2003488540649414	5569506.831306828
1.2046287059783936	7083511.96115641
1.2089121341705322	8712357.659452457
1.2131990194320679	10240167.29182312
1.2174891233444214	11771724.990816671
1.2217823266983032	13068112.651012948
1.2260783910751343	14216767.679149294
1.230377197265625	15389734.254583836
1.2346785068511963	16600276.439167092
1.238982081413269	17907149.784298938
1.2432878017425537	19202568.579508934
1.2475954294204712	20439054.860740975
1.2519049644470215	21233515.29836057
1.256216049194336	21966093.337308247
1.2605286836624146	22542306.869759757
1.2648425102233887	22367168.40996089
1.2691574096679688	21851604.897729825
1.2734732627868652	21295576.22823528
1.2777899503707886	20788058.37167893
1.2821072340011597	19934439.8097584
1.2864248752593994	18544334.26635534
1.2907428741455078	17298315.575778797
1.2950609922409058	16665496.409655076
1.2993791103363037	16051989.846404077
1.303696870803833	14608100.50972818
1.3080145120620728	12291106.734236397
1.3123314380645752	10138074.116875254
1.3166478872299194	9206260.947438596
1.3209635019302368	8889534.078549363
1.3252781629562378	7469066.55048567
1.3295916318893433	4400372.775301246
1.3339040279388428	1641858.3921259954
1.3382149934768677	606614.7184668239
1.3425244092941284	345939.0237662441
1.3468321561813354	167883.62227202006
1.3511382341384888	85736.88297244674
1.3554422855377197	55136.0735138878
1.3597444295883179	46362.14528031153
1.3640443086624146	59594.52948261619
1.3683418035507202	71408.14911957376
1.3726370334625244	72061.1952226484
1.3769296407699585	79803.4045506631
1.381219506263733	81620.39180437388
1.3855066299438477	79146.60198837676
1.3897908926010132	89947.4688334349
1.3940720558166504	98288.4214405695
1.3983501195907593	95742.25873900414
1.4026249647140503	90375.34389550854
1.4068963527679443	84984.56315551336
1.4111642837524414	89857.05993809919
1.4154287576675415	108964.33217610476
1.419689416885376	117473.55664724004
1.4239463806152344	124993.29520701035
1.4281994104385376	167491.36082608445
1.4324485063552856	222137.0744006495
1.436693549156189	269683.0558898385
1.440934419631958	328091.84997978987
1.4451709985733032	416700.02119272127
1.449403166770935	585952.8682332527
1.453631043434143	793272.0485697287
1.4578542709350586	956507.8806086644
1.4620729684829712	1060232.750693377
1.4662868976593018	1072429.3165622426
1.4704961776733398	1008358.4872215099
1.4747005701065063	1049088.183248034
1.4788999557495117	1207980.6528728376
1.4830944538116455	1371129.123365771
1.4872838258743286	1558108.687552056
1.491468071937561	1738057.7583536108
1.4956470727920532	1938631.598555764
1.4998208284378052	2179288.1856559054
1.5039892196655273	2431799.6082763956
1.5081522464752197	2747210.118549864
1.5123097896575928	3143534.729154988
1.5164618492126465	3484122.1691749315
1.5206083059310913	3851963.0201233537
1.5247491598129272	4434013.0196162015
1.5288842916488647	5060866.911556503
1.5330137014389038	5611919.205891459
1.5371372699737549	6219172.058853998
1.541254997253418	7010619.238714341
1.545366883277893	7964359.619489057
1.5494728088378906	8827889.698491666
1.5535727739334106	9292729.776073636
1.5576666593551636	9189394.328031084
1.561754584312439	9364518.68409449
1.5658363103866577	10377932.659668937
1.5699119567871094	11439712.697174236
1.5739814043045044	12025424.37931834
1.5780447721481323	11652737.219497861
1.582101821899414	10898394.211483952
1.5861525535583496	10803756.455234889
1.5901970863342285	10837914.240938261
1.5942351818084717	10558739.7698196
1.5982669591903687	10175377.975732949
1.6022924184799194	9430118.759079268
1.606311559677124	8349568.5599332545
1.6103241443634033	7363452.919228088
1.6143304109573364	6337955.783248056
1.6183301210403442	5591357.315951625
1.6223233938217163	6243376.15337718
1.6263102293014526	7220488.064574434
1.6302905082702637	6683238.2772372775
1.634264349937439	5610222.990847951
1.638231635093689	5242191.036523199
1.6421923637390137	5008492.269657314
1.646146535873413	4576819.00734328
1.6500942707061768	4749654.102047276
1.6540353298187256	4903755.119735281
1.6579699516296387	4294766.418630698
1.661897897720337	3812018.923373293
1.6658192873001099	3051889.436221541
1.6697341203689575	2126759.221369537
1.6736423969268799	2430869.5512025626
1.677544116973877	3329959.0194326798
1.6814392805099487	3294565.8626509723
1.6853278875350952	2346043.0563875837
1.6892099380493164	1568179.546464415
1.6930854320526123	1302935.0179743308
1.696954369544983	1220595.9159084638
1.7008168697357178	1285589.7192674328
1.7046726942062378	1464438.8313810173
1.708522081375122	1643998.6485706943
1.712364912033081	1913563.0886365685
1.7162011861801147	2247790.678493821
1.7200311422348022	2202861.628652317
1.723854422569275	1807658.9469240797
1.7276713848114014	1718414.2004754287
1.731481909751892	1958677.6382348188
1.7352858781814575	2075319.1368923206
1.7390835285186768	1962300.282707881
1.7428747415542603	1779742.3821947875
1.7466596364974976	1677209.6979298783
1.7504380941390991	1727995.0715217378
1.7542102336883545	1817435.3903669498
1.7579760551452637	1945303.032771773
1.7617355585098267	2011885.050924024
1.7654887437820435	1806449.5381384606
1.7692357301712036	1440260.9030680521
1.7729763984680176	1168298.2182607783
1.776710867881775	1119458.5793496573
1.7804391384124756	1143601.948357623
1.7841613292694092	1045204.0976492399
1.7878772020339966	945092.5916401639
1.7915871143341064	879213.877256152
1.7952908277511597	876786.6308786313
1.7989884614944458	900655.6417275314
1.8026801347732544	738899.2876453828
1.806365728378296	606927.2020360827
1.8100452423095703	670472.0357302455
1.8137187957763672	783811.2371725223
1.817386507987976	749321.7144450841
1.8210482597351074	751672.1120127243
1.8247040510177612	887158.0896299465
1.828354001045227	802518.9414479592
1.8319982290267944	611822.587743933
1.8356364965438843	505550.6471902074
1.8392690420150757	483847.3906499662
1.8428958654403687	570084.1640547502
1.8465168476104736	590171.85473363
1.8501322269439697	579559.7693414198
1.8537418842315674	591466.5706381762
1.8573459386825562	498635.497773755
1.860944390296936	387635.67020845023
1.864537239074707	332820.4657262395
1.8681244850158691	291587.2166707128
1.871706247329712	314738.4191708473
1.8752825260162354	477296.52254620934
1.8788533210754395	759958.8251732343
1.8824186325073242	998407.2717975723
1.8859784603118896	1088437.2145038084
1.8895330429077148	1098499.3203275967
1.8930821418762207	1200175.7948008417
1.8966259956359863	1282626.2611402755
1.9001644849777222	1103110.1243968052
1.9036977291107178	962218.8979929758
1.9072256088256836	1052413.0483704682
1.9107483625411987	1054546.2205537201
1.9142658710479736	992077.6258464094
1.9177782535552979	1067102.5702888502
1.9212853908538818	1039428.1480365646
1.9247875213623047	895618.0572189001
1.9282845258712769	765557.3677631402
1.9317764043807983	649017.7474445519
1.9352631568908691	580534.4121341126
1.9387450218200684	526550.5366034741
1.942221760749817	555384.8240648846
1.9456936120986938	631336.3611647119
1.9491604566574097	686631.6087858361
1.952622413635254	696128.4305434296
1.956079363822937	668621.573793121
1.959531545639038	729056.491898173
1.962978720664978	835606.0499010314
1.966421127319336	945651.3455369102
1.9698586463928223	1030362.7091633491
1.9732913970947266	1069570.4100292134
1.9767193794250488	1167116.0915379121
1.9801424741744995	1268278.5882554387
1.9835609197616577	1380551.8631556658
1.9869745969772339	1459492.8486905745
1.990383505821228	1472686.8289685976
1.9937876462936401	1613563.169879532
1.9971871376037598	1697796.3831066273
2.000581979751587	1665707.1104189341
2.003972291946411	1672027.1020392303
2.007357597351074	1705239.778889381
2.0107386112213135	1820880.8783027339
2.0141148567199707	1893914.8928240584
2.017486572265625	1843436.4078159619
2.0208535194396973	1973993.5613515598
2.0242159366607666	2212575.055496556
2.027573823928833	2261770.465822484
2.0309269428253174	2366952.1338819475
2.034275770187378	2664272.8955402686
2.0376198291778564	2858048.6869980576
2.040959596633911	2892366.91329925
2.044294595718384	3070757.520044872
2.0476250648498535	3320141.102717959
2.0509510040283203	3316637.564506945
2.054272413253784	3311311.555763588
2.057589530944824	3564451.7118839244
2.0609018802642822	3683498.1649311585
2.0642096996307373	3612645.213793251
2.0675129890441895	3608417.261975451
2.0708119869232178	3601897.516378854
2.074106216430664	3609346.9883889053
2.0773961544036865	3669977.466946452
2.080681324005127	3725987.6080453983
2.0839622020721436	3748083.5046705026
2.087238311767578	3762195.676115767
2.090510129928589	3767664.2312902184
2.0937774181365967	3737127.2627646653
2.0970399379730225	3716342.40702705
2.1002981662750244	3687890.1597993034
2.1035518646240234	3645691.423567215
2.1068007946014404	3629899.1109264856
2.1100454330444336	3595821.7253505867
2.1132853031158447	3538947.8470785567
2.116520881652832	3449118.9232715387
2.1197516918182373	3382455.4714241344
2.1229779720306396	3389626.8674877943
2.12619948387146	3366589.7220064085
2.1294167041778564	3293837.0943253906
2.132629156112671	3246924.197332318
2.1358368396759033	3192305.985939151
2.139039993286133	3070972.7535067075
2.1422386169433594	2909923.799216256
2.145432472229004	2780888.463068182
2.1486217975616455	2725649.936274224
2.151806354522705	2683542.862121884
2.1549863815307617	2630289.5906554717
2.1581614017486572	2559958.5810741354
2.16133189201355	2454065.528886248
2.1644976139068604	2351777.140762321
2.167658567428589	2264044.1326409965
2.1708147525787354	2213035.8670556415
2.173966407775879	2181122.040058255
2.1771130561828613	2136827.562041017
2.1802549362182617	2088602.0863141106
2.183391809463501	1990839.112011896
2.1865241527557373	1855338.9763434075
2.1896514892578125	1692827.013659502
2.1927738189697266	1446496.300997778
2.1958916187286377	1081145.0982628185
2.1990041732788086	696440.9132506269
2.2021119594573975	470284.3804886175
2.2052149772644043	423009.56080936926
2.208312749862671	497561.79864133225
2.2114057540893555	647236.926082187
2.214493751525879	789446.1810112876
2.217576742172241	862932.555724109
2.2206547260284424	863974.0016417246
2.2237277030944824	828805.216896452
2.2267956733703613	768135.8974663914
2.2298583984375	703986.3324057091
2.2329163551330566	664760.1443240326
2.235969066619873	621186.0553379147
2.2390167713165283	552039.8530657851
2.2420592308044434	489583.13612400123
2.2450966835021973	434650.8047612058
2.248128890991211	386656.57021916256
2.2511560916900635	373718.39059236797
2.254178285598755	379196.51290326327
2.257194995880127	379920.1612034175
2.260206699371338	384458.65345034964
2.2632133960723877	396221.5466354202
2.266214609146118	396678.7714560706
2.2692108154296875	386628.58278639783
2.2722020149230957	383666.53506417933
2.2751877307891846	381444.9669127659
2.278168201446533	375316.7132663674
2.2811436653137207	352702.0249625504
2.284113883972168	306166.4290475146
2.287078857421875	266503.0829911026
2.290038824081421	231143.39800091487
2.2929933071136475	196394.57942343166
2.295942783355713	181866.99841492917
2.298887014389038	194945.87804226798
2.301826238632202	219640.9491562753
2.304760217666626	250017.613462019
2.3076889514923096	312272.18697938696
2.310612440109253	379604.6281713622
2.3135311603546143	373886.8261911983
2.3164443969726562	254637.7727153367
2.319352865219116	131225.68124475077
2.322256088256836	100551.08136108587
2.3251543045043945	110706.60233092711
2.328047275543213	124634.523136145
2.330935478210449	139089.31666451585
2.3338186740875244	144857.90928950018
2.3366971015930176	149685.85379046533
2.3395702838897705	165165.67937337604
2.3424389362335205	181229.00750501515
2.3453025817871094	184921.0284251018
2.348161458969116	180068.51421265554
2.351015567779541	172874.84360023527
2.353865146636963	177923.36398934585
2.3567099571228027	199690.71455639583
2.3595502376556396	223130.25778980477
2.3623859882354736	243404.47414369683
2.3652172088623047	254036.85106088896
2.368043899536133	232650.43128492884
2.370866537094116	174384.1091092194
2.3736846446990967	144646.89375850756
2.3764986991882324	156710.6880427107
2.3793084621429443	160284.34904675532
2.3821144104003906	157651.9573886291
2.384916305541992	181686.89296064174
2.387714147567749	229807.83391431606
2.3905084133148193	255188.91323375198
2.393299102783203	265886.98993974633
2.3960859775543213	293913.97317822493
2.398869514465332	338170.7340894387
2.4016497135162354	384297.7025392549
2.4044265747070312	414995.8581568973
2.407200336456299	409379.51675034413
2.409970998764038	411544.559624665
2.4127390384674072	438481.7208444058
2.415503978729248	421126.14158761944
2.418266534805298	393949.36306540377
2.4210267066955566	403874.64698269113
2.4237842559814453	387052.27001840493
2.426539897918701	379538.3422734738
2.429293394088745	440304.09018533747
2.4320452213287354	470932.5846248801
2.4347951412200928	427492.7433366228
2.4375438690185547	463087.25167038565
2.440291166305542	565377.2302142003
2.443037271499634	562910.6605828153
2.445782423019409	505961.9764697741
2.4485268592834473	494727.19035986497
2.451270818710327	489878.12717564864
2.454014539718628	503916.8346931563
2.4567582607269287	586829.8610395549
2.4595019817352295	628504.5422822249
2.4622461795806885	649296.9790309569
2.4649908542633057	699607.020513511
2.4677364826202393	641048.7854837364
2.4704833030700684	547186.259023492
2.473231554031372	500894.54376380565
2.4759814739227295	490265.0305101395
2.4787333011627197	499704.8557389162
