#wavelength	surface_flux
0.6450077295303345	1113679.4748006181
0.6472567915916443	1706154.7893912487
0.6494921445846558	2114580.6356004053
0.6517150402069092	2284727.8355488675
0.6539263725280762	2444066.218085452
0.6561272740364075	2600563.3350749332
0.6583186388015747	2754973.452003962
0.6605015397071838	2916999.230290202
0.6626768708229065	3083042.598582658
0.6648455858230591	3242821.0229883837
0.6670085787773132	3393684.472038323
0.6691668033599854	3524218.6230362137
0.6713210344314575	3654878.370376184
0.6734722256660461	3826240.1168267825
0.6756211519241333	4005551.6969965575
0.6777685880661011	4152669.101368827
0.6799154281616211	4280195.649693424
0.6820623278617859	4390673.229404562
0.6842101216316223	4476516.797655525
0.6863595843315125	4527439.779011915
0.688511312007904	4534964.184449025
0.6906660795211792	4551590.863525416
0.6928245425224304	4616237.820987005
0.6949873566627502	4705674.801519615
0.6971551775932312	4797592.039135638
0.6993286609649658	4916024.694945055
0.7015084028244019	5102446.082455921
0.7036949396133423	5307446.225166036
0.7058889269828796	5449184.638530857
0.7080909013748169	5537970.7944710525
0.710301399230957	5634399.7646103455
0.712520956993103	5754489.939482353
0.7147500514984131	5888503.380464247
0.7169892191886902	6033889.153298861
0.7192389369010925	6164448.516573107
0.7214996814727783	6266349.637655928
0.723771870136261	6359379.438855721
0.7260559797286987	6435603.67331788
0.7283523678779602	6482832.578075501
0.7306615710258484	6486297.045179156
0.7329838871955872	6373916.553145619
0.7353196740150452	6165450.591132769
0.7376693487167358	5973403.122848208
0.7400332689285278	5773664.373163853
0.7424117922782898	5578984.389928201
0.7448052167892456	5434268.260453485
0.7472138404846191	5289193.724882717
0.7496379613876343	5082485.332133938
0.7520779371261597	4797117.222061119
0.7545340061187744	4439491.083268875
0.7570064663887024	3946435.3666430134
0.7594954967498779	3236864.9312406355
0.7620013952255249	2198220.6258573947
0.7645244002342224	997259.3159746168
0.7670646905899048	236905.00346067082
0.7696225643157959	119502.5886598886
0.7721980810165405	595829.2372319752
0.7747915983200073	1890993.0076729227
0.7774031162261963	3458055.743576227
0.7800329327583313	4636775.610277911
0.7826811671257019	6031901.20507469
0.7853479981422424	7594673.681385222
0.7880334854125977	8730977.921717197
0.7907378077507019	9449249.840146316
0.7934610247612	9661990.48847401
0.7962033748626709	10205169.678247789
0.7989648580551147	11511911.321382316
0.801745593547821	12625668.003089726
0.8045456409454346	13357450.458028013
0.8073651194572449	14111023.878402026
0.8102040886878967	14952313.023223946
0.8130625486373901	15834766.646654883
0.8159406185150146	16621389.746593405
0.8188382983207703	17249220.28131565
0.8217556476593018	18037027.20309398
0.8246926665306091	18992296.711523276
0.8276493549346924	19778055.247501686
0.8306257724761963	20438966.08362681
0.8336219191551208	21120675.92989703
0.8366377949714661	21805419.668576445
0.8396733403205872	22432600.80424565
0.8427285552024841	22870797.76011485
0.8458034992218018	23111669.151730105
0.8488980531692505	23141926.187201917
0.8520121574401855	22904173.26520532
0.8551458716392517	23256030.553751174
0.8582990765571594	23876200.573109053
0.8614717125892639	23730027.124441464
0.8646637797355652	23611846.192455646
0.8678751587867737	24101599.426137406
0.8711057901382446	24904993.01762009
0.8743556141853333	25892881.612106424
0.87762451171875	27076275.96673012
0.8809124231338501	28377889.865422573
0.8842192888259888	29646156.41203696
0.8875449895858765	30718707.404964026
0.8908893465995789	31429068.57018242
0.894252359867096	32008045.758197714
0.8976338505744934	33446292.252747323
0.9010337591171265	35353937.68287979
0.9044519662857056	36778504.46625587
0.9078882932662964	38189416.97897696
0.9113426208496094	39896880.062143505
0.914814829826355	41671701.4183549
0.9183048605918884	42968116.64050776
0.9218124747276306	42953650.07986791
0.925337553024292	41858061.28962167
0.9288799166679382	40884113.79070653
0.9324395060539246	41135327.11093316
0.9360161423683167	42706603.00368216
0.9396095871925354	44643909.94798169
0.943219780921936	46316082.45154893
0.9468464851379395	47850436.67896673
0.9504896402359009	49399852.55571815
0.9541489481925964	50787481.03255662
0.9578243494033813	51988695.26698596
0.9615156054496765	53091863.25640111
0.9652225375175476	54448574.03305891
0.9689450263977051	55952837.92372792
0.9726828336715698	56859271.131819785
0.9764357805252075	57685592.49952835
0.9802037477493286	59034235.09747068
0.983986496925354	60475387.17230346
0.9877838492393494	60511686.41604927
0.9915955662727356	58168271.93679545
0.9954215884208679	56643103.48324752
0.9992615580558777	56973369.53498604
1.0031154155731201	57662033.36664495
1.0069829225540161	59124809.81045828
1.0108637809753418	61053361.95429053
1.0147579908370972	62751071.20228539
1.018665075302124	64424790.63285743
1.022585153579712	65969601.27757669
1.0265177488327026	66637383.43899482
1.0304628610610962	67611655.84893827
1.0344202518463135	69831989.07502973
1.0383895635604858	72249085.47123174
1.0423706769943237	74095224.15989468
1.0463634729385376	75468636.29675676
1.0503677129745483	76673368.0229881
1.0543830394744873	77960270.61716424
1.058409333229065	79560488.33725923
1.0624464750289917	81291951.23789921
1.0664942264556885	82735326.61507319
1.0705522298812866	84422262.67206836
1.0746204853057861	86969245.3227227
1.0786986351013184	89808761.95152742
1.0827864408493042	92238991.96504165
1.086883783340454	93920251.93187128
1.0909905433654785	94687900.93017876
1.0951062440872192	94346810.92302343
1.0992310047149658	92943182.65637662
1.10336434841156	90434682.64910053
1.1075061559677124	87880420.86640485
1.1116561889648438	87065746.3939966
1.115814208984375	87888808.30917074
1.1199802160263062	89668372.10476841
1.124153733253479	92556255.82462592
1.1283347606658936	94406060.2889596
1.1325229406356812	92425928.11958101
1.1367181539535522	89474654.9724173
1.1409201622009277	90335386.27800646
1.145128846168518	95263865.55728576
1.1493438482284546	100196426.88645226
1.1535650491714478	102067856.74296567
1.1577922105789185	102325986.50020972
1.1620250940322876	102002186.01010127
1.1662636995315552	99682097.72025122
1.170507550239563	97241428.60274227
1.174756646156311	96236354.93437622
1.1790107488632202	97341491.19688985
1.1832695007324219	102625709.52216206
1.1875330209732056	108479405.72448982
1.191800832748413	111531039.38876806
1.1960728168487549	112394713.09306137
1.2003488540649414	113190035.10772751
1.2046287059783936	115779446.80608563
1.2089121341705322	118392850.42659399
1.2131990194320679	120500231.13553661
1.2174891233444214	122494126.6167887
1.2217823266983032	123866124.69075698
1.2260783910751343	125817975.90866745
1.230377197265625	127812145.24940348
1.2346785068511963	128178896.47671121
1.238982081413269	125798547.91819403
1.2432878017425537	122566831.79384257
1.2475954294204712	122267349.37537792
1.2519049644470215	122816918.0271929
1.256216049194336	125201239.37208429
1.2605286836624146	129607640.22781469
1.2648425102233887	132306314.28856528
1.2691574096679688	133967907.31339763
1.2734732627868652	134879040.2749345
1.2777899503707886	135456048.7987086
1.2821072340011597	135820487.05265623
1.2864248752593994	135226386.16478822
1.2907428741455078	134735092.92092556
1.2950609922409058	135570607.75900233
1.2993791103363037	136953530.37630543
1.303696870803833	137792682.53448376
1.3080145120620728	137659696.5331333
1.3123314380645752	136942071.00768664
1.3166478872299194	136551533.89206064
1.3209635019302368	135639449.7905505
1.3252781629562378	132331183.00907545
1.3295916318893433	123789725.63249111
1.3339040279388428	108674030.28364453
1.3382149934768677	94505378.97052726
1.3425244092941284	87385935.23723361
1.3468321561813354	83451659.54254055
1.3511382341384888	79582717.43389882
1.3554422855377197	77064426.86741161
1.3597444295883179	78150668.56406221
1.3640443086624146	82069728.4777109
1.3683418035507202	84778471.68988155
1.3726370334625244	86063990.40227759
1.3769296407699585	88555166.87683924
1.381219506263733	89817686.12805328
1.3855066299438477	89358978.6729929
1.3897908926010132	88424045.11402674
1.3940720558166504	86313434.40420043
1.3983501195907593	84895058.29577968
1.4026249647140503	85295915.46203399
1.4068963527679443	85293268.34762877
1.4111642837524414	83615791.36721992
1.4154287576675415	82405931.13091062
1.419689416885376	81910271.8408181
1.4239463806152344	81550801.56974865
1.4281994104385376	82547107.45850687
1.4324485063552856	84943237.69382177
1.436693549156189	87315781.27414194
1.440934419631958	89062809.68538077
1.4451709985733032	90936383.11898589
1.449403166770935	94233453.80554166
1.453631043434143	98265410.10529475
1.4578542709350586	101469423.56265236
1.4620729684829712	102975241.31656139
1.4662868976593018	103411758.86706918
1.4704961776733398	104348866.97873302
1.4747005701065063	106186092.9742292
1.4788999557495117	108111784.2605575
1.4830944538116455	109659493.12302569
1.4872838258743286	111088396.09115154
1.491468071937561	112442645.99141163
1.4956470727920532	114123000.45682526
1.4998208284378052	115978968.765723
1.5039892196655273	117880986.28051291
1.5081522464752197	119835535.38373587
1.5123097896575928	121827813.38986605
1.5164618492126465	123753963.7259793
1.5206083059310913	125769369.43337718
1.5247491598129272	127758934.23201647
1.5288842916488647	129349022.0094042
1.5330137014389038	130933711.55167249
1.5371372699737549	132634833.90248625
1.541254997253418	134122003.70637313
1.545366883277893	135544509.67005458
1.5494728088378906	136889596.93829146
1.5535727739334106	137692477.78646508
1.5576666593551636	137867983.8469185
1.561754584312439	138338568.73678502
1.5658363103866577	139736668.61828122
1.5699119567871094	141384096.6639064
1.5739814043045044	142745245.51144305
1.5780447721481323	143575449.90643224
1.582101821899414	144383754.87392858
1.5861525535583496	145584215.53288636
1.5901970863342285	146676628.91254184
1.5942351818084717	147540968.26691395
1.5982669591903687	148278556.2465168
1.6022924184799194	148867064.6850001
1.606311559677124	149463164.447234
1.6103241443634033	149987038.03926152
1.6143304109573364	150428923.9499357
1.6183301210403442	150800777.3903057
1.6223233938217163	151197191.44732574
1.6263102293014526	151679696.3873864
1.6302905082702637	152030112.2440719
1.634264349937439	152456744.1612229
1.638231635093689	153042361.6079303
1.6421923637390137	153575234.14925304
1.646146535873413	154094230.99455762
1.6500942707061768	154450759.02308264
1.6540353298187256	154695836.09545928
1.6579699516296387	154818322.78922167
1.661897897720337	154852979.1901057
1.6658192873001099	154998008.26518616
1.6697341203689575	154924162.14462468
1.6736423969268799	154996308.6453907
1.677544116973877	155475055.41927877
1.6814392805099487	155611371.01025546
1.6853278875350952	154968578.23241737
1.6892099380493164	154030814.19784647
1.6930854320526123	153179442.99602482
1.696954369544983	152303357.71794027
1.7008168697357178	151822602.59899893
1.7046726942062378	151348796.32815367
1.708522081375122	150092427.95548755
1.712364912033081	148230553.77281147
1.7162011861801147	146176047.17653283
1.7200311422348022	144671112.28938863
1.723854422569275	143524389.05445367
1.7276713848114014	142040294.26940638
1.731481909751892	140301977.3111929
1.7352858781814575	138395218.78535944
1.7390835285186768	136334712.31483412
1.7428747415542603	134275870.3021313
1.7466596364974976	132245193.92152125
1.7504380941390991	130272736.59697402
1.7542102336883545	127917931.81003423
1.7579760551452637	125750448.3845743
1.7617355585098267	124367326.00835854
1.7654887437820435	122277449.59541187
1.7692357301712036	119359797.10562241
1.7729763984680176	116765579.55893777
1.776710867881775	114471227.5192642
1.7804391384124756	111819793.79998343
1.7841613292694092	108524513.02767469
1.7878772020339966	107158726.73407097
1.7915871143341064	106864600.71156955
1.7952908277511597	105591955.48642427
1.7989884614944458	102977438.82255211
1.8026801347732544	99654831.25433701
1.806365728378296	98289980.49406317
1.8100452423095703	98187352.71290968
1.8137187957763672	99620848.14333
1.817386507987976	99023160.88033943
1.8210482597351074	97333422.50206982
1.8247040510177612	99262464.5874602
1.828354001045227	99816060.83199747
1.8319982290267944	98579023.05503923
1.8356364965438843	97304748.37351173
1.8392690420150757	95722540.354084
1.8428958654403687	93951052.63015172
1.8465168476104736	91030619.34952405
1.8501322269439697	90236741.95994323
1.8537418842315674	89247996.47549336
1.8573459386825562	83958319.20346741
1.860944390296936	80099344.77118072
1.864537239074707	80932461.15676561
1.8681244850158691	84071906.50132751
1.871706247329712	87205743.09798183
1.8752825260162354	89923749.40572885
1.8788533210754395	94081310.81333037
1.8824186325073242	98776127.06591964
1.8859784603118896	101203107.29844446
1.8895330429077148	101643017.60584679
1.8930821418762207	103221142.74268943
1.8966259956359863	106158238.78540185
1.9001644849777222	107092596.24535616
1.9036977291107178	106103651.18010883
1.9072256088256836	106279499.45982231
1.9107483625411987	106624554.87359728
1.9142658710479736	106365994.6779829
1.9177782535552979	106072287.95022234
1.9212853908538818	104033768.97695683
1.9247875213623047	102344252.02046484
1.9282845258712769	101725654.19221188
1.9317764043807983	100098143.48837274
1.9352631568908691	97370057.86424428
1.9387450218200684	92683048.28726469
1.942221760749817	91681505.45192686
1.9456936120986938	95126879.40672678
1.9491604566574097	96490358.53221011
1.952622413635254	94937370.20586562
1.956079363822937	92913243.43106997
1.959531545639038	93319825.0254593
1.962978720664978	94731410.61995909
1.966421127319336	96692326.49717197
1.9698586463928223	97641159.83426549
1.9732913970947266	95641270.56163806
1.9767193794250488	95130621.36853945
1.9801424741744995	96824302.5526416
1.9835609197616577	99174673.89042595
1.9869745969772339	100299833.7546193
1.990383505821228	98511301.82597396
1.9937876462936401	99404991.95447658
1.9971871376037598	101036421.30642521
2.000581979751587	101925018.48556519
2.003972291946411	104840365.84955226
2.007357597351074	105025864.86300562
2.0107386112213135	104832609.68458757
2.0141148567199707	107173344.16010225
2.017486572265625	108146519.20777665
2.0208535194396973	110475073.68892132
2.0242159366607666	113336228.23523833
2.027573823928833	112476880.49283592
2.0309269428253174	113199750.40981773
2.034275770187378	116552654.87504055
2.0376198291778564	118172314.82094273
2.040959596633911	118504094.94220169
2.044294595718384	119445028.18165924
2.0476250648498535	121026328.48186515
2.0509510040283203	121679288.71484691
2.054272413253784	122192844.33277358
2.057589530944824	124382204.8389034
2.0609018802642822	125260898.48485564
2.0642096996307373	124871106.04486625
2.0675129890441895	126112044.95282678
2.0708119869232178	126970642.49396658
2.074106216430664	126778934.69561172
2.0773961544036865	127222815.37633958
2.080681324005127	127890731.80921774
2.0839622020721436	128202592.28324664
2.087238311767578	128515111.79149501
2.090510129928589	128984275.67514503
2.0937774181365967	129222611.09125334
2.0970399379730225	129255481.38339116
2.1002981662750244	129378908.91064782
2.1035518646240234	129364159.46744797
2.1068007946014404	129364005.36650752
2.1100454330444336	129544090.38252075
2.1132853031158447	129767598.47146454
2.116520881652832	129647325.32809721
2.1197516918182373	129529729.5037077
2.1229779720306396	129826997.08377017
2.12619948387146	129837145.18377976
2.1294167041778564	129481767.93862042
2.132629156112671	129526625.24439587
2.1358368396759033	129664321.8946524
2.139039993286133	129307036.03558125
2.1422386169433594	129096469.35594095
2.145432472229004	129286903.35489167
2.1486217975616455	129175459.54785442
2.151806354522705	128800420.75046419
2.1549863815307617	128644899.37725744
2.1581614017486572	128586058.47291228
2.16133189201355	128457808.23467267
2.1644976139068604	128259551.14478315
2.167658567428589	128074825.10035886
2.1708147525787354	127825250.47826797
2.173966407775879	127411571.8462598
2.1771130561828613	126967765.21192664
2.1802549362182617	126772217.1673272
2.183391809463501	126634697.06880783
2.1865241527557373	126290645.04458779
2.1896514892578125	126037823.77363552
2.1927738189697266	125670374.44712445
2.1958916187286377	124998202.59525144
2.1990041732788086	124363652.89056188
2.2021119594573975	123820593.83768156
2.2052149772644043	123471460.08955848
2.208312749862671	123423866.16674209
2.2114057540893555	123538379.67297092
2.214493751525879	123541194.08363871
2.217576742172241	122892743.56137216
2.2206547260284424	122100628.27658693
2.2237277030944824	122174925.52106516
2.2267956733703613	122300810.00456586
2.2298583984375	122095797.87044467
2.2329163551330566	121823162.8675699
2.235969066619873	121356010.51781467
2.2390167713165283	120928780.09375651
2.2420592308044434	120242952.79898702
2.2450966835021973	119686734.36704712
2.248128890991211	119542469.59050561
2.2511560916900635	119427710.30719803
2.254178285598755	119279760.86975873
2.257194995880127	119199418.5785768
2.260206699371338	119093058.09587342
2.2632133960723877	118306798.33831841
2.266214609146118	117257309.6222613
2.2692108154296875	116619921.39665417
2.2722020149230957	116565466.6792877
2.2751877307891846	116999466.46385868
2.278168201446533	116604596.50403729
2.2811436653137207	115606820.15584193
2.284113883972168	115546377.84379591
2.287078857421875	115821346.51723163
2.290038824081421	113442950.60649271
2.2929933071136475	105773900.1264648
2.295942783355713	98016199.28828621
2.298887014389038	95870946.30604358
2.301826238632202	96706774.37349208
2.304760217666626	97405453.40997212
2.3076889514923096	97180278.60724947
2.310612440109253	96815415.10667516
2.3135311603546143	96778132.72957282
2.3164443969726562	96649396.4054066
2.319352865219116	96111150.35372248
2.322256088256836	93713435.49149318
2.3251543045043945	91846384.8124939
2.328047275543213	92236174.48113772
2.330935478210449	93053772.83233301
2.3338186740875244	94368311.39458121
2.3366971015930176	95107408.57497129
2.3395702838897705	94355697.8528593
2.3424389362335205	94024857.12923153
2.3453025817871094	95768268.36849007
2.348161458969116	97610517.92601307
2.351015567779541	96012422.92940435
2.353865146636963	93753699.19011909
2.3567099571228027	93258793.42426796
2.3595502376556396	92635872.53732045
2.3623859882354736	92359662.47405899
2.3652172088623047	92316204.96192645
2.368043899536133	91801235.83089122
2.370866537094116	91746596.91771173
2.3736846446990967	92908018.39575712
2.3764986991882324	93159334.22406308
2.3793084621429443	91782080.78743859
2.3821144104003906	89921373.44968155
2.384916305541992	88049882.92912963
2.387714147567749	88329983.38714828
2.3905084133148193	90345107.57366915
2.393299102783203	90727999.03300624
2.3960859775543213	90255799.27195641
2.398869514465332	90625754.19059373
2.4016497135162354	90217652.26440819
2.4044265747070312	89291984.7728474
2.407200336456299	87771774.2882924
2.409970998764038	86275047.97444399
2.4127390384674072	85813461.79769295
2.415503978729248	84843151.86850856
2.418266534805298	83400675.71089706
2.4210267066955566	83081943.2838151
2.4237842559814453	83286964.32574314
2.426539897918701	82426063.0369339
2.429293394088745	81634770.49926764
2.4320452213287354	79945123.47296578
2.4347951412200928	76671963.61006053
2.4375438690185547	76664488.00428131
2.440291166305542	78550906.09894323
2.443037271499634	76329437.1717206
2.445782423019409	72839710.8155443
2.4485268592834473	71953682.75178118
2.451270818710327	69193951.30454095
2.454014539718628	66424368.94486613
2.4567582607269287	71367050.37208073
2.4595019817352295	72386218.845505
2.4622461795806885	69792850.28952795
2.4649908542633057	70645140.57236874
2.4677364826202393	66567429.39797438
2.4704833030700684	62058039.47950565
2.473231554031372	58846768.41562348
2.4759814739227295	57926090.51844066
2.4787333011627197	59878854.88114142
2.481487512588501	60180695.17429883
