#wavelength	surface_flux
0.6450077295303345	875277565.3865736
0.6472567915916443	1331705940.8814595
0.6494921445846558	1642510086.5674245
0.6517150402069092	1859379483.257018
0.6539263725280762	2100478801.4820719
0.6561272740364075	2221145723.403077
0.6583186388015747	2271923595.213739
0.6605015397071838	2298770837.2094064
0.6626768708229065	2269739300.940817
0.6648455858230591	2166586309.293737
0.6670085787773132	2024169424.846743
0.6691668033599854	1815989917.6358912
0.6713210344314575	1493671188.1424272
0.6734722256660461	1195739469.5949814
0.6756211519241333	1016872132.0082695
0.6777685880661011	885020051.0974443
0.6799154281616211	769977711.1011724
0.6820623278617859	669795042.0296007
0.6842101216316223	556379632.7192736
0.6863595843315125	457867677.42328817
0.688511312007904	411234745.1558092
0.6906660795211792	436308760.1404131
0.6928245425224304	562018266.7198147
0.6949873566627502	723989652.8631399
0.6971551775932312	805749882.7596104
0.6993286609649658	844377641.2345623
0.7015084028244019	1053511037.4347702
0.7036949396133423	1574560472.324255
0.7058889269828796	2027265834.3088298
0.7080909013748169	2072340744.0516593
0.710301399230957	1951906145.8818069
0.712520956993103	1804918282.7590168
0.7147500514984131	1710367125.532192
0.7169892191886902	1891732791.9699786
0.7192389369010925	2172711948.688006
0.7214996814727783	2363267477.9054313
0.723771870136261	2574720509.9066725
0.7260559797286987	2757446206.0363317
0.7283523678779602	2879269362.1278253
0.7306615710258484	2959411815.239503
0.7329838871955872	2967642334.139846
0.7353196740150452	2946989948.596197
0.7376693487167358	2932975278.007622
0.7400332689285278	2933093366.3372693
0.7424117922782898	2944212849.2113795
0.7448052167892456	2962675954.291702
0.7472138404846191	2994435547.4170895
0.7496379613876343	3034455660.1337395
0.7520779371261597	3084291989.878661
0.7545340061187744	3146158268.844134
0.7570064663887024	3212154833.0772305
0.7594954967498779	3253025216.9375315
0.7620013952255249	3179628445.8540397
0.7645244002342224	2737656241.3131385
0.7670646905899048	2189489858.4026484
0.7696225643157959	2218496671.1596045
0.7721980810165405	2773574069.2181745
0.7747915983200073	3268179796.6793175
0.7774031162261963	3460226627.8267217
0.7800329327583313	3511296914.2816553
0.7826811671257019	3539145942.3507447
0.7853479981422424	3584121610.998657
0.7880334854125977	3656550898.5419245
0.7907378077507019	3714581784.198595
0.7934610247612	3759240656.1032524
0.7962033748626709	3821186248.753574
0.7989648580551147	3882486056.8350196
0.801745593547821	3921383603.8679485
0.8045456409454346	3945248677.589775
0.8073651194572449	3966544778.2203727
0.8102040886878967	3987540972.8565664
0.8130625486373901	3980200241.242686
0.8159406185150146	3772348573.9478745
0.8188382983207703	3424448922.912729
0.8217556476593018	3510440665.9414783
0.8246926665306091	3882435677.689943
0.8276493549346924	4011357555.1233363
0.8306257724761963	3988422699.276367
0.8336219191551208	3928692504.1304393
0.8366377949714661	3806638372.712425
0.8396733403205872	3650023908.6899757
0.8427285552024841	3558378445.96345
0.8458034992218018	3623921576.7464795
0.8488980531692505	3736514578.743712
0.8520121574401855	3732494304.908837
0.8551458716392517	3755241967.787039
0.8582990765571594	3904224115.791182
0.8614717125892639	3981106976.1083183
0.8646637797355652	3873620688.7164598
0.8678751587867737	3763298679.8704166
0.8711057901382446	3817700883.6636357
0.8743556141853333	3941221739.280093
0.87762451171875	3999018813.752655
0.8809124231338501	4001767303.2686315
0.8842192888259888	3999706771.427454
0.8875449895858765	3998168907.988774
0.8908893465995789	4002611952.38386
0.894252359867096	4029110363.539227
0.8976338505744934	4052639185.9173317
0.9010337591171265	4065467942.560237
0.9044519662857056	4074170577.0043406
0.9078882932662964	4086563743.0278606
0.9113426208496094	4111995830.966093
0.914814829826355	4140465623.1069784
0.9183048605918884	4159427697.238804
0.9218124747276306	4173622478.532042
0.925337553024292	4173058933.0395885
0.9288799166679382	4154819197.3888283
0.9324395060539246	4146932910.953123
0.9360161423683167	4156245899.224554
0.9396095871925354	4166614835.7192864
0.943219780921936	4175416396.4590816
0.9468464851379395	4184440600.2267933
0.9504896402359009	4179113227.366599
0.9541489481925964	4145080559.795404
0.9578243494033813	4091113980.720378
0.9615156054496765	3971512414.893935
0.9652225375175476	3813587577.6858883
0.9689450263977051	3749242553.430084
0.9726828336715698	3782108787.379528
0.9764357805252075	3843814315.1076818
0.9802037477493286	3949084039.891863
0.983986496925354	4071110977.956611
0.9877838492393494	4022949847.908755
0.9915955662727356	3812986853.67262
0.9954215884208679	3731139258.3947363
0.9992615580558777	3784546303.7707434
1.0031154155731201	3810137865.983417
1.0069829225540161	3825500016.9470263
1.0108637809753418	3853417981.3433723
1.0147579908370972	3864298326.296383
1.018665075302124	3864127854.1497574
1.022585153579712	3856779435.387311
1.0265177488327026	3819631119.240378
1.0304628610610962	3787205992.366616
1.0344202518463135	3779046677.136798
1.0383895635604858	3798955663.2188535
1.0423706769943237	3842236895.859906
1.0463634729385376	3868107226.8305154
1.0503677129745483	3870110855.637878
1.0543830394744873	3874306157.4948106
1.058409333229065	3876424740.753367
1.0624464750289917	3877111667.4064984
1.0664942264556885	3873426837.0781617
1.0705522298812866	3869979785.697643
1.0746204853057861	3882483395.3379316
1.0786986351013184	3899653261.525658
1.0827864408493042	3910944817.459665
1.086883783340454	3911701211.9952035
1.0909905433654785	3904043253.663775
1.0951062440872192	3885762319.7310424
1.0992310047149658	3863457727.9885373
1.10336434841156	3844096961.351396
1.1075061559677124	3826160762.182554
1.1116561889648438	3811469210.37916
1.115814208984375	3804658585.728935
1.1199802160263062	3799433812.850232
1.124153733253479	3794705826.5664377
1.1283347606658936	3786059579.9368277
1.1325229406356812	3735892482.749984
1.1367181539535522	3590928709.2548018
1.1409201622009277	3491841085.3733273
1.145128846168518	3594461503.813976
1.1493438482284546	3712074200.5434313
1.1535650491714478	3722859233.540743
1.1577922105789185	3700918510.2704077
1.1620250940322876	3676182363.424135
1.1662636995315552	3652545394.0647955
1.170507550239563	3629747326.8530416
1.174756646156311	3598034560.468248
1.1790107488632202	3569332328.265492
1.1832695007324219	3575752710.514506
1.1875330209732056	3583281928.467032
1.191800832748413	3571490912.7025456
1.1960728168487549	3548480814.226377
1.2003488540649414	3543373716.8436756
1.2046287059783936	3566261237.266975
1.2089121341705322	3574669070.4692235
1.2131990194320679	3571511735.716802
1.2174891233444214	3568467911.2925744
1.2217823266983032	3561890303.1021686
1.2260783910751343	3554715044.069622
1.230377197265625	3545234021.908726
1.2346785068511963	3530078337.4780293
1.238982081413269	3506603090.559102
1.2432878017425537	3483010993.965796
1.2475954294204712	3471708307.1686034
1.2519049644470215	3461372823.9167113
1.256216049194336	3456179764.330196
1.2605286836624146	3455688642.8336625
1.2648425102233887	3447092453.5386596
1.2691574096679688	3437708113.9744897
1.2734732627868652	3428053008.398665
1.2777899503707886	3408651744.611297
1.2821072340011597	3374617367.3968334
1.2864248752593994	3354120484.5428042
1.2907428741455078	3356461046.985385
1.2950609922409058	3358206318.5464015
1.2993791103363037	3352325821.0322094
1.303696870803833	3338139316.3658648
1.3080145120620728	3308410049.6591196
1.3123314380645752	3267434591.828277
1.3166478872299194	3250289096.244794
1.3209635019302368	3249138510.8913426
1.3252781629562378	3217708031.50538
1.3295916318893433	3117535908.2980165
1.3339040279388428	2931230161.02825
1.3382149934768677	2762159338.059339
1.3425244092941284	2690042816.95309
1.3468321561813354	2664567247.5069737
1.3511382341384888	2646056931.6748734
1.3554422855377197	2638369679.6199446
1.3597444295883179	2647651860.7858624
1.3640443086624146	2666447234.957052
1.3683418035507202	2687014856.4730115
1.3726370334625244	2703474828.87874
1.3769296407699585	2714670616.0401006
1.381219506263733	2702422272.96593
1.3855066299438477	2660572999.138052
1.3897908926010132	2598008025.830012
1.3940720558166504	2536115615.3915777
1.3983501195907593	2504321686.6586623
1.4026249647140503	2499179118.2269754
1.4068963527679443	2478806926.505826
1.4111642837524414	2424304761.164893
1.4154287576675415	2376223818.8325233
1.419689416885376	2350380088.2413707
1.4239463806152344	2328986612.2614284
1.4281994104385376	2317720623.892694
1.4324485063552856	2321182316.3058662
1.436693549156189	2321594582.037295
1.440934419631958	2317752594.14247
1.4451709985733032	2315470704.176796
1.449403166770935	2314236844.170581
1.453631043434143	2314415856.7406664
1.4578542709350586	2310590672.109058
1.4620729684829712	2295726390.8675814
1.4662868976593018	2271927393.2987356
1.4704961776733398	2253200835.7555146
1.4747005701065063	2246784253.9260554
1.4788999557495117	2241497958.0376906
1.4830944538116455	2235370875.0945597
1.4872838258743286	2232692303.7900968
1.491468071937561	2229575473.9564667
1.4956470727920532	2227952223.3552713
1.4998208284378052	2224297586.1309276
1.5039892196655273	2219869332.6478786
1.5081522464752197	2218953682.775919
1.5123097896575928	2215614757.9941506
1.5164618492126465	2209516421.577902
1.5206083059310913	2207458228.8287325
1.5247491598129272	2202428565.4778643
1.5288842916488647	2192004687.916289
1.5330137014389038	2183481991.3168306
1.5371372699737549	2176106753.049388
1.541254997253418	2165970572.945266
1.545366883277893	2158162225.853546
1.5494728088378906	2153473916.650749
1.5535727739334106	2144798280.0798688
1.5576666593551636	2136598677.8834028
1.561754584312439	2131361095.3698707
1.5658363103866577	2125950840.3731875
1.5699119567871094	2118883913.6989684
1.5739814043045044	2112459382.8808165
1.5780447721481323	2107409357.5406954
1.582101821899414	2100667591.3732755
1.5861525535583496	2091374558.9058201
1.5901970863342285	2080899152.8114984
1.5942351818084717	2072090958.0811143
1.5982669591903687	2064719270.814857
1.6022924184799194	2054015213.5430434
1.606311559677124	2041685554.3239732
1.6103241443634033	2029597302.353283
1.6143304109573364	2017084059.7007413
1.6183301210403442	2004481084.6842515
1.6223233938217163	1993413597.7679532
1.6263102293014526	1984101053.8969052
1.6302905082702637	1973578404.5697994
1.634264349937439	1961931042.884604
1.638231635093689	1950580162.3952088
1.6421923637390137	1938966981.927693
1.646146535873413	1926868668.0887022
1.6500942707061768	1914005125.7831507
1.6540353298187256	1901749699.871818
1.6579699516296387	1889653311.2176237
1.661897897720337	1876674939.228415
1.6658192873001099	1864240568.7619193
1.6697341203689575	1852029067.4035413
1.6736423969268799	1840249923.0729306
1.677544116973877	1828470591.149662
1.6814392805099487	1815473835.6584654
1.6853278875350952	1800599696.2250476
1.6892099380493164	1784265994.8568733
1.6930854320526123	1767466794.070995
1.696954369544983	1750098638.06029
1.7008168697357178	1733364071.95925
1.7046726942062378	1715473509.400859
1.708522081375122	1693900007.4693384
1.712364912033081	1670711199.5313876
1.7162011861801147	1647172826.968561
1.7200311422348022	1627558943.3141587
1.723854422569275	1612319325.1792881
1.7276713848114014	1594491175.7663088
1.731481909751892	1573705620.671321
1.7352858781814575	1552725491.8173282
1.7390835285186768	1531971993.6647403
1.7428747415542603	1512231052.099341
1.7466596364974976	1492820631.837095
1.7504380941390991	1471705665.7432706
1.7542102336883545	1447343417.6992292
1.7579760551452637	1425313170.5143669
1.7617355585098267	1409560871.4507751
1.7654887437820435	1390946745.4782045
1.7692357301712036	1366738811.0673776
1.7729763984680176	1345579665.1924322
1.776710867881775	1327657872.3858922
1.7804391384124756	1308425110.6244082
1.7841613292694092	1286514855.453104
1.7878772020339966	1269328143.0966458
1.7915871143341064	1258455781.811915
1.7952908277511597	1245920866.2212677
1.7989884614944458	1228210223.8940434
1.8026801347732544	1211251896.455996
1.806365728378296	1202877919.9038048
1.8100452423095703	1196752767.561276
1.8137187957763672	1191917250.6687937
1.817386507987976	1178760368.5571983
1.8210482597351074	1165966413.4517975
1.8247040510177612	1169645652.975737
1.828354001045227	1168745931.772963
1.8319982290267944	1158693293.610899
1.8356364965438843	1148388940.5618768
1.8392690420150757	1136822524.3728278
1.8428958654403687	1116315711.9633694
1.8465168476104736	1091520428.8157096
1.8501322269439697	1080956791.0519664
1.8537418842315674	1067234508.1206155
1.8573459386825562	1034352386.6856693
1.860944390296936	1019800413.0383011
1.864537239074707	1036488499.4879862
1.8681244850158691	1051447120.5880996
1.871706247329712	1047226593.7397503
1.8752825260162354	1038176235.19121
1.8788533210754395	1041969987.7954457
1.8824186325073242	1054761219.6059581
1.8859784603118896	1059645788.5463868
1.8895330429077148	1050063954.6259683
1.8930821418762207	1041979502.333318
1.8966259956359863	1046986708.7739592
1.9001644849777222	1053091687.518469
1.9036977291107178	1049378086.5523968
1.9072256088256836	1042668706.247561
1.9107483625411987	1039843560.2585901
1.9142658710479736	1038910736.251444
1.9177782535552979	1032180547.4344145
1.9212853908538818	1020464436.7497419
1.9247875213623047	1010836860.5116578
1.9282845258712769	991655886.9782541
1.9317764043807983	969336077.5279397
1.9352631568908691	972880363.6542634
1.9387450218200684	974172256.2286007
1.942221760749817	948301462.0250989
1.9456936120986938	917461268.4946418
1.9491604566574097	909422953.7301687
1.952622413635254	920845138.3280884
1.956079363822937	934130450.3842181
1.959531545639038	941126197.0972517
1.962978720664978	938137946.8152722
1.966421127319336	937401240.708506
1.9698586463928223	932355556.1610289
1.9732913970947266	903597928.6257062
1.9767193794250488	855302395.6207609
1.9801424741744995	840935743.0639367
1.9835609197616577	862966425.1230234
1.9869745969772339	867757273.3185463
1.990383505821228	864663595.9112626
1.9937876462936401	872907849.0938121
1.9971871376037598	876293666.9458203
2.000581979751587	874931876.4926828
2.003972291946411	876755004.7785993
2.007357597351074	870367928.0508025
2.0107386112213135	859676763.0248091
2.0141148567199707	858312826.3437842
2.017486572265625	858093603.0517445
2.0208535194396973	858053414.5534246
2.0242159366607666	856873895.8095218
2.027573823928833	847720358.8615814
2.0309269428253174	845724224.481328
2.034275770187378	849614965.5063169
2.0376198291778564	847475183.2612896
2.040959596633911	844188765.8404349
2.044294595718384	840492597.7775452
2.0476250648498535	837579840.6748934
2.0509510040283203	836623308.0455697
2.054272413253784	835453020.806371
2.057589530944824	836398713.7053266
2.0609018802642822	832654688.7783675
2.0642096996307373	825334807.4100997
2.0675129890441895	826156697.4307934
2.0708119869232178	826858013.546442
2.074106216430664	822530975.1961286
2.0773961544036865	821265157.0492756
2.080681324005127	820242419.3727756
2.0839622020721436	816520857.2852792
2.087238311767578	813660887.3531542
2.090510129928589	813231282.7191399
2.0937774181365967	811932397.8995097
2.0970399379730225	808158867.3652011
2.1002981662750244	805997752.363959
2.1035518646240234	804789244.5403798
2.1068007946014404	802242586.1466674
2.1100454330444336	799803483.265524
2.1132853031158447	798077442.5997921
2.116520881652832	795351818.8311448
2.1197516918182373	792843058.1005145
2.1229779720306396	791180747.0497304
2.12619948387146	787365624.453607
2.1294167041778564	783273694.2814817
2.132629156112671	781910075.4356922
2.1358368396759033	779920596.910531
2.139039993286133	775630992.2778322
2.1422386169433594	773331811.4929569
2.145432472229004	772867481.312223
2.1486217975616455	769023398.1733862
2.151806354522705	764204255.3099291
2.1549863815307617	762244691.2421573
2.1581614017486572	760432270.544052
2.16133189201355	757186996.3834704
2.1644976139068604	754110490.960576
2.167658567428589	751756067.0320545
2.1708147525787354	748472590.8751017
2.173966407775879	744318362.1801388
2.1771130561828613	740404525.2711356
2.1802549362182617	737271883.5009869
2.183391809463501	734700458.9573203
2.1865241527557373	731912529.9505653
2.1896514892578125	728913997.2439765
2.1927738189697266	725917042.8415828
2.1958916187286377	723173313.2800844
2.1990041732788086	720193541.8083701
2.2021119594573975	716209191.7200142
2.2052149772644043	712033312.335625
2.208312749862671	709080487.7375363
2.2114057540893555	707205186.5493462
2.214493751525879	704928819.3250223
2.217576742172241	701397179.319914
2.2206547260284424	697898633.2319136
2.2237277030944824	695746114.6541961
2.2267956733703613	693195158.9601327
2.2298583984375	689881877.4766885
2.2329163551330566	686669941.928
2.235969066619873	683540474.2684394
2.2390167713165283	681146356.0169891
2.2420592308044434	678492958.8556066
2.2450966835021973	675535129.5070742
2.248128890991211	672721946.1548094
2.2511560916900635	669714943.250198
2.254178285598755	666935306.7567165
2.257194995880127	664370615.5429639
2.260206699371338	661516386.8657095
2.2632133960723877	658262272.4214584
2.266214609146118	655630903.1950375
2.2692108154296875	653144068.3048403
2.2722020149230957	650353073.1711013
2.2751877307891846	648170331.788332
2.278168201446533	645367500.0294362
2.2811436653137207	642061378.2168708
2.284113883972168	639917241.0804652
2.287078857421875	638366143.2446847
2.290038824081421	634585961.5968004
2.2929933071136475	627107378.4140769
2.295942783355713	620793317.0722163
2.298887014389038	618417552.0666317
2.301826238632202	617098734.9425713
2.304760217666626	615432968.9573987
2.3076889514923096	613137046.3522636
2.310612440109253	610477285.3452207
2.3135311603546143	607611632.0809208
2.3164443969726562	605112281.5877728
2.319352865219116	602750011.4408783
2.322256088256836	598210430.1081747
2.3251543045043945	593915703.1481644
2.328047275543213	591936674.1939626
2.330935478210449	590038439.4894996
2.3338186740875244	588480122.0633156
2.3366971015930176	586898577.9175992
2.3395702838897705	584120849.278997
2.3424389362335205	581097357.744613
2.3453025817871094	579385405.442506
2.348161458969116	578417512.6165701
2.351015567779541	574009661.751933
2.353865146636963	568739407.3588777
2.3567099571228027	566177449.6419908
2.3595502376556396	564127358.0452735
2.3623859882354736	563895874.7889558
2.3652172088623047	563618188.4184343
2.368043899536133	561035165.7936671
2.370866537094116	560046799.4236307
2.3736846446990967	559237260.0342098
2.3764986991882324	555763769.2951307
2.3793084621429443	551737527.6099113
2.3821144104003906	546751587.4036422
2.384916305541992	541464712.6861924
2.387714147567749	538837240.409663
2.3905084133148193	539541334.3022823
2.393299102783203	539977973.2279432
2.3960859775543213	537509601.3543205
2.398869514465332	533223484.32815313
2.4016497135162354	528039901.1381155
2.4044265747070312	523352632.6672576
2.407200336456299	518794168.2719018
2.409970998764038	514275162.2970653
2.4127390384674072	510759987.5068895
2.415503978729248	508121006.6683136
2.418266534805298	505135113.17468
2.4210267066955566	500943239.93453526
2.4237842559814453	496349412.1576604
2.426539897918701	492049063.87041867
2.429293394088745	489434883.32287616
2.4320452213287354	486054621.7057347
2.4347951412200928	479561741.2453226
2.4375438690185547	476024716.6943864
2.440291166305542	475205340.16772765
2.443037271499634	470265827.43232316
2.445782423019409	466178562.64164114
2.4485268592834473	464269994.08010274
2.451270818710327	455965096.70705
2.454014539718628	448224977.0182549
2.4567582607269287	454547270.8694428
2.4595019817352295	452924131.1562982
2.4622461795806885	446653907.5921005
2.4649908542633057	448329536.39801645
2.4677364826202393	440791434.8492945
2.4704833030700684	434957441.1564998
2.473231554031372	428713765.3797227
2.4759814739227295	424394662.01395184
2.4787333011627197	426725086.1839913
2.481487512588501	424631524.45430285
