#wavelength	surface_flux
0.6450077295303345	288.22046111104635
0.6472567915916443	461.3865052229592
0.6494921445846558	617.6222989487605
0.6517150402069092	732.7418666754194
0.6539263725280762	868.2127612567988
0.6561272740364075	1020.5395445918004
0.6583186388015747	1194.8650259607293
0.6605015397071838	1426.0333092464512
0.6626768708229065	1718.768658217935
0.6648455858230591	2057.7133253605944
0.6670085787773132	2442.14019101792
0.6691668033599854	2869.3930093520466
0.6713210344314575	3351.435607726801
0.6734722256660461	3938.5828093161495
0.6756211519241333	4589.900895943707
0.6777685880661011	5207.5339444880265
0.6799154281616211	5817.155502462992
0.6820623278617859	6319.911396501152
0.6842101216316223	6614.022800673813
0.6863595843315125	6711.822153103509
0.688511312007904	6562.957843948072
0.6906660795211792	6114.068405415567
0.6928245425224304	5587.90936657966
0.6949873566627502	5394.077443035631
0.6971551775932312	5434.180298484836
0.6993286609649658	5593.307978086993
0.7015084028244019	6070.284498615844
0.7036949396133423	6635.608720756512
0.7058889269828796	6960.577688875526
0.7080909013748169	7030.835003453634
0.710301399230957	7097.093125316807
0.712520956993103	7310.564529241202
0.7147500514984131	7325.043110352536
0.7169892191886902	7025.176410733384
0.7192389369010925	6775.339845809142
0.7214996814727783	6712.900359504826
0.723771870136261	6655.0213625037695
0.7260559797286987	6451.123405130901
0.7283523678779602	6156.859064813432
0.7306615710258484	5893.004408308498
0.7329838871955872	5654.22340392322
0.7353196740150452	5427.402400399689
0.7376693487167358	5203.127465276688
0.7400332689285278	4961.476218310677
0.7424117922782898	4783.646239904713
0.7448052167892456	4652.803886599021
0.7472138404846191	4504.826495230264
0.7496379613876343	4325.436043023431
0.7520779371261597	4120.1464324769495
0.7545340061187744	3912.584830308697
0.7570064663887024	3720.7123764228763
0.7594954967498779	3576.1411937489097
0.7620013952255249	3323.179161441473
0.7645244002342224	2757.7526077115367
0.7670646905899048	2238.2260488508064
0.7696225643157959	2326.4309211286195
0.7721980810165405	3023.70502650866
0.7747915983200073	4030.203011482128
0.7774031162261963	4993.759987240037
0.7800329327583313	5871.252867055388
0.7826811671257019	7089.740417438447
0.7853479981422424	8680.456349538008
0.7880334854125977	10509.289337577466
0.7907378077507019	12506.684341006963
0.7934610247612	14312.022602359933
0.7962033748626709	17223.77352850204
0.7989648580551147	22214.414222730033
0.801745593547821	27765.514400729367
0.8045456409454346	33305.29954134482
0.8073651194572449	39249.33772760024
0.8102040886878967	45357.01918762286
0.8130625486373901	52409.619346708525
0.8159406185150146	62290.742605294414
0.8188382983207703	74912.88392477986
0.8217556476593018	88409.3458068398
0.8246926665306091	103996.6062983168
0.8276493549346924	122264.51978515401
0.8306257724761963	141893.94766636207
0.8336219191551208	164972.70209203305
0.8366377949714661	192579.51693052478
0.8396733403205872	224161.52843092816
0.8427285552024841	261064.4959216163
0.8458034992218018	302751.76640265505
0.8488980531692505	337252.43904407945
0.8520121574401855	369413.30970696267
0.8551458716392517	440292.71821779595
0.8582990765571594	537075.3298217675
0.8614717125892639	624301.8759560243
0.8646637797355652	713107.0358784237
0.8678751587867737	811901.1990022333
0.8711057901382446	920893.1517435907
0.8743556141853333	1038768.5443483047
0.87762451171875	1165168.9178301566
0.8809124231338501	1303336.4342539753
0.8842192888259888	1452458.9122327522
0.8875449895858765	1566303.7214146077
0.8908893465995789	1535348.5353844739
0.894252359867096	1453400.8942718764
0.8976338505744934	1621657.3728530973
0.9010337591171265	1994014.4814410526
0.9044519662857056	2336962.6251295703
0.9078882932662964	2563773.6675026948
0.9113426208496094	2677523.8137091515
0.914814829826355	2759211.4249156294
0.9183048605918884	2946100.510647586
0.9218124747276306	3126258.5676331925
0.925337553024292	2746158.8009460596
0.9288799166679382	1911146.6687518943
0.9324395060539246	1498277.7703640454
0.9360161423683167	1688365.5507289218
0.9396095871925354	2118949.819949625
0.943219780921936	2522604.1788026006
0.9468464851379395	2741935.389286204
0.9504896402359009	2853560.597532929
0.9541489481925964	2950250.217382193
0.9578243494033813	2997933.566997717
0.9615156054496765	3211300.136886218
0.9652225375175476	3723493.563306959
0.9689450263977051	4271427.485087532
0.9726828336715698	4722525.079393267
0.9764357805252075	5205468.184116859
0.9802037477493286	5791562.794069015
0.983986496925354	6527303.2910229955
0.9877838492393494	7606401.946071889
0.9915955662727356	8845972.546563776
0.9954215884208679	9849626.664662704
0.9992615580558777	10584067.822975745
1.0031154155731201	11467334.645495726
1.0069829225540161	12800144.160259793
1.0108637809753418	14454991.391517552
1.0147579908370972	16270725.67254348
1.018665075302124	18112309.775941364
1.022585153579712	19888346.50323698
1.0265177488327026	21643595.760117818
1.0304628610610962	23486242.420990076
1.0344202518463135	25366303.35696661
1.0383895635604858	27133841.77509218
1.0423706769943237	28648170.403946597
1.0463634729385376	29926797.42013763
1.0503677129745483	31021886.894153427
1.0543830394744873	31895262.592384726
1.058409333229065	32671108.94455263
1.0624464750289917	33606629.517865136
1.0664942264556885	34537113.65483784
1.0705522298812866	35279851.14634596
1.0746204853057861	35987549.05865487
1.0786986351013184	36485181.659446545
1.0827864408493042	35827963.78110277
1.086883783340454	31842914.471008215
1.0909905433654785	24003202.30363548
1.0951062440872192	16169858.318087658
1.0992310047149658	11662907.978450611
1.10336434841156	9321877.824945036
1.1075061559677124	7253584.320776491
1.1116561889648438	5196603.6255392395
1.115814208984375	3626858.3422385054
1.1199802160263062	2556328.6021800754
1.124153733253479	1815532.5320371487
1.1283347606658936	1575033.2043236753
1.1325229406356812	1420964.8654313677
1.1367181539535522	1441013.3885022216
1.1409201622009277	1857114.5204589304
1.145128846168518	1788409.366957932
1.1493438482284546	1137410.3742948466
1.1535650491714478	643331.6934528297
1.1577922105789185	518749.8862043678
1.1620250940322876	488265.2922307804
1.1662636995315552	505427.67498522985
1.170507550239563	782352.020306213
1.174756646156311	1233181.063430591
1.1790107488632202	1955233.8968387
1.1832695007324219	2943513.9379890673
1.1875330209732056	4068226.8532972736
1.191800832748413	6215156.147559157
1.1960728168487549	9381711.454849597
1.2003488540649414	12474642.557566145
1.2046287059783936	15979674.8094336
1.2089121341705322	19814565.058498614
1.2131990194320679	23413961.624375075
1.2174891233444214	27061475.25936679
1.2217823266983032	30275770.618923545
1.2260783910751343	33296456.66136178
1.230377197265625	36421547.57203027
1.2346785068511963	39547060.49331003
1.238982081413269	42317264.69755096
1.2432878017425537	44607786.648939714
1.2475954294204712	47214039.63902836
1.2519049644470215	48694942.23491942
1.256216049194336	51182574.85261118
1.2605286836624146	54190555.800341874
1.2648425102233887	54030100.65463685
1.2691574096679688	52375879.18666827
1.2734732627868652	50742371.0515415
1.2777899503707886	49396733.69582285
1.2821072340011597	46986714.475825906
1.2864248752593994	42948555.59008554
1.2907428741455078	39562209.888011046
1.2950609922409058	38063104.66333795
1.2993791103363037	36538775.75580434
1.303696870803833	33075882.65473963
1.3080145120620728	27528875.69026648
1.3123314380645752	22172097.07063764
1.3166478872299194	19642042.793305714
1.3209635019302368	18587845.860668797
1.3252781629562378	15237823.307057561
1.3295916318893433	8717012.597317167
1.3339040279388428	3115226.0591285853
1.3382149934768677	1060270.290685564
1.3425244092941284	591261.1167732651
1.3468321561813354	296754.31009419996
1.3511382341384888	164595.30560124785
1.3554422855377197	115120.9108103998
1.3597444295883179	102180.53476129513
1.3640443086624146	128222.24468444141
1.3683418035507202	149427.87989171233
1.3726370334625244	148529.35515085864
1.3769296407699585	160652.55142187726
1.381219506263733	163827.24440983887
1.3855066299438477	159281.270905748
1.3897908926010132	178000.32252656316
1.3940720558166504	193852.16606725633
1.3983501195907593	188118.0679183962
1.4026249647140503	175687.07731489703
1.4068963527679443	166340.34811759656
1.4111642837524414	176087.05095996015
1.4154287576675415	211288.07593515032
1.419689416885376	228154.8899488507
1.4239463806152344	241436.52963840115
1.4281994104385376	317289.0875337947
1.4324485063552856	418036.0406549651
1.436693549156189	503222.5313441059
1.440934419631958	602417.0451052386
1.4451709985733032	750703.2147365863
1.449403166770935	1036749.7550027127
1.453631043434143	1382082.7876952877
1.4578542709350586	1643298.3008662036
1.4620729684829712	1801095.5799958373
1.4662868976593018	1818622.209810523
1.4704961776733398	1727848.936342445
1.4747005701065063	1807781.6995594031
1.4788999557495117	2086466.4732109467
1.4830944538116455	2380315.9166246294
1.4872838258743286	2697880.9281686223
1.491468071937561	2994701.9180596797
1.4956470727920532	3323904.3758166903
1.4998208284378052	3724646.930943242
1.5039892196655273	4165849.1303472207
1.5081522464752197	4716787.330431675
1.5123097896575928	5395658.041383932
1.5164618492126465	5966083.418598256
1.5206083059310913	6574108.953562561
1.5247491598129272	7534085.707797196
1.5288842916488647	8565024.616582818
1.5330137014389038	9513215.259368055
1.5371372699737549	10567760.14839543
1.541254997253418	11872937.73610822
1.545366883277893	13444673.46122544
1.5494728088378906	14888243.865572417
1.5535727739334106	15730837.289384734
1.5576666593551636	15765280.840025151
1.561754584312439	16180195.368725164
1.5658363103866577	17778394.419030666
1.5699119567871094	19352793.677284338
1.5739814043045044	20096870.325352136
1.5780447721481323	19435411.505306646
1.582101821899414	18244625.192368
1.5861525535583496	17985954.446608778
1.5901970863342285	17872590.642878667
1.5942351818084717	17305587.496443108
1.5982669591903687	16644982.176243141
1.6022924184799194	15388550.025374146
1.606311559677124	13529213.830364529
1.6103241443634033	11803987.877317779
1.6143304109573364	10041936.18070271
1.6183301210403442	8790529.574869113
1.6223233938217163	9897273.252349611
1.6263102293014526	11553726.84190977
1.6302905082702637	10674714.256191539
1.634264349937439	8870521.519408364
1.638231635093689	8209730.282209855
1.6421923637390137	7840055.153197749
1.646146535873413	7255014.858184396
1.6500942707061768	7596306.642719872
1.6540353298187256	7770477.248751259
1.6579699516296387	6712236.431406082
1.661897897720337	5943539.55131099
1.6658192873001099	4779107.2214655215
1.6697341203689575	3304531.352272468
1.6736423969268799	3775243.0563518484
1.677544116973877	5258199.09003693
1.6814392805099487	5213343.737989263
1.6853278875350952	3630103.772473148
1.6892099380493164	2360887.358614433
1.6930854320526123	1970402.1678585438
1.696954369544983	1887672.3863549146
1.7008168697357178	2036251.4248913962
1.7046726942062378	2345477.5497481073
1.708522081375122	2613662.047309436
1.712364912033081	2998525.013106843
1.7162011861801147	3493108.7242500875
1.7200311422348022	3399900.092591944
1.723854422569275	2779201.462028206
1.7276713848114014	2661309.6817479036
1.731481909751892	3052010.3430485087
1.7352858781814575	3203754.476835312
1.7390835285186768	2972742.012286561
1.7428747415542603	2656012.5316745434
1.7466596364974976	2483188.9742833977
1.7504380941390991	2554523.367593246
1.7542102336883545	2699601.9754138454
1.7579760551452637	2922429.8581300387
1.7617355585098267	3062230.097205216
1.7654887437820435	2772442.365434161
1.7692357301712036	2211708.1504875124
1.7729763984680176	1797277.25843367
1.776710867881775	1717458.7325765141
1.7804391384124756	1740246.1532041454
1.7841613292694092	1603223.0995839578
1.7878772020339966	1483882.6169559755
1.7915871143341064	1417338.0715206359
1.7952908277511597	1424818.9415193095
1.7989884614944458	1452937.7235141515
1.8026801347732544	1216245.4150126795
1.806365728378296	1033232.3924012823
1.8100452423095703	1144865.0362067032
1.8137187957763672	1340705.8226846366
1.817386507987976	1302101.1439395433
1.8210482597351074	1307748.6496785113
1.8247040510177612	1524841.4783735867
1.828354001045227	1412725.8660814916
1.8319982290267944	1134823.1842811252
1.8356364965438843	979156.9945109579
1.8392690420150757	941279.7400598886
1.8428958654403687	1046668.3104017157
1.8465168476104736	1057850.058267071
1.8501322269439697	1044022.1422495976
1.8537418842315674	1057256.6981063168
1.8573459386825562	898677.9527192698
1.860944390296936	715610.9926478487
1.864537239074707	636552.1684799035
1.8681244850158691	599288.5701588336
1.871706247329712	663838.2178936836
1.8752825260162354	921938.4109855274
1.8788533210754395	1340771.6683388953
1.8824186325073242	1696829.5037168679
1.8859784603118896	1838543.5004595208
1.8895330429077148	1869061.3722716304
1.8930821418762207	2065560.4182104724
1.8966259956359863	2246691.0521590165
1.9001644849777222	2012320.5051016833
1.9036977291107178	1805168.7200950494
1.9072256088256836	1943165.0752544345
1.9107483625411987	1951101.8606562326
1.9142658710479736	1861347.527732721
1.9177782535552979	1977929.9142801072
1.9212853908538818	1910952.725298048
1.9247875213623047	1664169.4529687648
1.9282845258712769	1455025.5129401407
1.9317764043807983	1258808.1760744876
1.9352631568908691	1132457.6336518526
1.9387450218200684	1030840.113583659
1.942221760749817	1076199.3477976404
1.9456936120986938	1218656.3474260373
1.9491604566574097	1322612.6889895261
1.952622413635254	1336974.1218468347
1.956079363822937	1285033.8268586397
1.959531545639038	1371667.0460225106
1.962978720664978	1528249.0922654516
1.966421127319336	1696713.5870711696
1.9698586463928223	1833518.3423194105
1.9732913970947266	1886326.6029065268
1.9767193794250488	2018749.8146921997
1.9801424741744995	2160592.0568057094
1.9835609197616577	2333761.545113079
1.9869745969772339	2462628.5085505857
1.990383505821228	2474282.478012661
1.9937876462936401	2702119.942006
1.9971871376037598	2874503.511179368
2.000581979751587	2893586.7267816057
2.003972291946411	2977833.123722789
2.007357597351074	3044201.750351
2.0107386112213135	3247112.4732402265
2.0141148567199707	3423972.4400164224
2.017486572265625	3371946.6114648418
2.0208535194396973	3627654.9004963893
2.0242159366607666	4053165.2783427667
2.027573823928833	4100184.0571108363
2.0309269428253174	4255685.772883939
2.034275770187378	4760292.9697888605
2.0376198291778564	5077804.47649749
2.040959596633911	5134321.375557516
2.044294595718384	5451959.6214275025
2.0476250648498535	5897553.7550128205
2.0509510040283203	5892746.201849533
2.054272413253784	5895583.700949484
2.057589530944824	6396579.322648437
2.0609018802642822	6643124.216051322
2.0642096996307373	6551073.743343281
2.0675129890441895	6610452.703652756
2.0708119869232178	6635655.036677988
2.074106216430664	6631501.637916464
2.0773961544036865	6708591.542001194
2.080681324005127	6803498.299337969
2.0839622020721436	6856675.78859661
2.087238311767578	6881214.8852074845
2.090510129928589	6890560.350706911
2.0937774181365967	6848907.084334408
2.0970399379730225	6811829.016218633
2.1002981662750244	6733069.687773533
2.1035518646240234	6604962.909156268
2.1068007946014404	6546651.420183791
2.1100454330444336	6485356.152984318
2.1132853031158447	6380930.238774912
2.116520881652832	6206194.169575831
2.1197516918182373	6069844.333735762
2.1229779720306396	6076682.34874899
2.12619948387146	6037346.807900463
2.1294167041778564	5904476.681212238
2.132629156112671	5817918.41630646
2.1358368396759033	5718415.818766172
2.139039993286133	5487453.730403231
2.1422386169433594	5172445.938150803
2.145432472229004	4914728.140835174
2.1486217975616455	4809821.249569529
2.151806354522705	4749929.903414887
2.1549863815307617	4661474.258489117
2.1581614017486572	4528806.557404424
2.16133189201355	4345297.0516813835
2.1644976139068604	4172027.8793849503
2.167658567428589	4004008.2058749003
2.1708147525787354	3884174.6863085213
2.173966407775879	3798220.4527913784
2.1771130561828613	3704705.1298602535
2.1802549362182617	3614639.880474109
2.183391809463501	3440842.29456618
2.1865241527557373	3201774.599659615
2.1896514892578125	2916617.043330824
2.1927738189697266	2508252.227233618
2.1958916187286377	1921940.555072307
2.1990041732788086	1300267.5508960483
2.2021119594573975	919304.2892172629
2.2052149772644043	817656.4812637244
2.208312749862671	917409.1677257946
2.2114057540893555	1153739.4745481065
2.214493751525879	1398158.351040017
2.217576742172241	1537041.0168234415
2.2206547260284424	1548164.5488735267
2.2237277030944824	1489019.4528093818
2.2267956733703613	1385710.2479505565
2.2298583984375	1285102.2659413673
2.2329163551330566	1227029.8360378337
2.235969066619873	1163323.7832365187
2.2390167713165283	1058050.3686349697
2.2420592308044434	952543.1742711919
2.2450966835021973	859738.7129855704
2.248128890991211	786592.1837458618
2.2511560916900635	769358.2103458387
2.254178285598755	779688.7499756046
2.257194995880127	780597.225685839
2.260206699371338	783315.4516463687
2.2632133960723877	796932.8323622718
2.266214609146118	795319.3620555768
2.2692108154296875	779379.4647445468
2.2722020149230957	776016.3450355628
2.2751877307891846	774900.7777550601
2.278168201446533	765164.6027360115
2.2811436653137207	723187.3983602545
2.284113883972168	642382.8293701366
2.287078857421875	574852.8421875729
2.290038824081421	511974.8559659396
2.2929933071136475	450693.1472955038
2.295942783355713	429342.902632505
2.298887014389038	462196.4085286348
2.301826238632202	518098.8418756422
2.304760217666626	589835.2383185877
2.3076889514923096	729579.3940056812
2.310612440109253	882942.5753257149
2.3135311603546143	883453.7869727177
2.3164443969726562	628989.0121473983
2.319352865219116	358874.56362778216
2.322256088256836	291253.2152051239
2.3251543045043945	307410.74741778476
2.328047275543213	332258.5799125229
2.330935478210449	362763.9122624058
2.3338186740875244	379009.31086836685
2.3366971015930176	394563.4052724097
2.3395702838897705	421558.6195467681
2.3424389362335205	444188.9752586566
2.3453025817871094	445536.3831566991
2.348161458969116	438003.64308641956
2.351015567779541	435793.15271444
2.353865146636963	455994.41824529885
2.3567099571228027	503680.98759811866
2.3595502376556396	559502.35947188
2.3623859882354736	612586.0005405032
2.3652172088623047	644438.9803371953
2.368043899536133	593592.791492996
2.370866537094116	445970.79545000516
2.3736846446990967	374532.98011760967
2.3764986991882324	405445.28080810135
2.3793084621429443	407743.7982753895
2.3821144104003906	394957.5542797616
2.384916305541992	446053.3627526925
2.387714147567749	554647.7535012495
2.3905084133148193	616185.8678506103
2.393299102783203	637587.3201249683
2.3960859775543213	689969.309962232
2.398869514465332	774429.0019498633
2.4016497135162354	861502.7135148473
2.4044265747070312	922953.365043664
2.407200336456299	916630.0587281315
2.409970998764038	917783.3901426139
2.4127390384674072	964085.2665727494
2.415503978729248	935596.3197023661
2.418266534805298	889557.4040554191
2.4210267066955566	905543.2570660424
2.4237842559814453	871745.3601672635
2.426539897918701	851856.5129594193
2.429293394088745	956432.1627749846
2.4320452213287354	1018947.6544069418
2.4347951412200928	939945.4716845434
2.4375438690185547	984497.2117007417
2.440291166305542	1153398.1167613594
2.443037271499634	1153739.089828887
2.445782423019409	1062549.380598069
2.4485268592834473	1046837.5293193851
2.451270818710327	1041613.9965722042
2.454014539718628	1061074.7223135338
2.4567582607269287	1194983.7495079509
2.4595019817352295	1256908.4979188202
2.4622461795806885	1296715.6262327044
2.4649908542633057	1391304.797301114
2.4677364826202393	1276843.6340868794
2.4704833030700684	1103458.5349375703
2.473231554031372	1026676.1415671874
2.4759814739227295	1015247.3754654648
2.4787333011627197	1040099.9561830149
2.481487512588501	1056008.4752913069
