#wavelength	surface flux
0.676892	1112665.3298552043
0.678297	1181215.4547797875
0.679702	1246518.4653248847
0.681109	1309148.039406146
0.682517	1361463.5313622374
0.683926	1419041.7242145892
0.685337	1463255.8828305618
0.686749	1504246.0205548634
0.688164	1541931.2373032577
0.689581	1573237.880822447
0.691	1565575.524440198
0.692422	1587280.7982766114
0.693847	1554768.516982313
0.695274	1621712.580915822
0.696705	1633561.9462042912
0.698139	1628636.0972407546
0.699576	1617005.5641763932
0.701017	1596847.7060546577
0.702461	1575280.937555881
0.70391	1546649.8073193424
0.705362	1496456.2894951655
0.706819	1448114.3269708885
0.70828	1409994.6556615508
0.709745	1354872.4847170152
0.711216	1306972.6884269987
0.71269	1252704.6437700551
0.71417	1196540.4073691342
0.715655	1129078.6379865422
0.717145	1058247.025598028
0.71864	996226.3434359444
0.72014	946325.288777012
0.721647	891242.5950063408
0.723158	844211.035831043
0.724676	781685.0799431961
0.726199	719331.0383579197
0.727728	649126.0742624365
0.729264	610541.1873676069
0.730805	554986.4058619235
0.732353	515531.40769703424
0.733907	466699.5542140534
0.735468	412068.0994578029
0.737035	377489.1398533289
0.738609	336335.2504533949
0.74019	297874.305306855
0.741777	261162.4060632819
0.743372	227253.36597980483
0.744973	195093.05169877922
0.746582	165137.2045076525
0.748197	137696.68581441694
0.74982	113553.17890811506
0.751451	91521.14289762775
0.753088	72169.3556988841
0.754734	55442.813348513504
0.756386	41276.10834713878
0.758047	29592.474199795342
0.759715	20298.622732848693
0.76139	13199.04038837993
0.763074	7947.674278227219
0.764765	3814.8002225743703
0.766464	1141.3793733778846
0.768172	2450.0081154732425
0.769887	1711.4399483961283
0.77161	5877.41801466147
0.773341	12568.532605912585
0.775081	21483.497081533584
0.776829	33646.436320892535
0.778585	43523.343559744484
0.780349	46643.32530934316
0.782121	93984.98753041893
0.783902	129615.12800559372
0.785691	169171.06305579827
0.787489	215737.3247975814
0.789295	269044.9557349807
0.79111	327311.1096817959
0.792933	352278.20901508763
0.794764	234433.37887944185
0.796604	503185.0661784639
0.798453	657098.7521005932
0.80031	777334.444866677
0.802176	902653.2543024849
0.804051	1042362.613610834
0.805934	1190911.3256580064
0.807826	1352806.0608745322
0.809727	1523733.6110998718
0.811636	1705486.9260277248
0.813554	1888237.0078566477
0.81548	2130390.7238777103
0.817416	2319123.256571176
0.81936	2271238.867713048
0.821313	2902187.078548521
0.823274	3251470.17305944
0.825244	3556898.2780206534
0.827223	3953806.3292799704
0.829211	4278811.149066737
0.831208	4628520.81223517
0.833213	5165980.884019397
0.835227	5573138.954150088
0.837249	5910940.08851407
0.83928	6544827.664435582
0.841321	7136215.356353703
0.843369	7677962.213957562
0.845427	8142456.715400798
0.847493	8830561.398906006
0.849567	8953096.26791862
0.851651	5941684.679994074
0.853742	9393641.89332476
0.855843	11603640.261583438
0.857952	12497123.328953573
0.86007	12836605.908977272
0.862196	8520711.490917841
0.864331	9332278.491053695
0.866474	10790497.541989163
0.868626	11251904.59574815
0.870786	10714116.613722721
0.872955	11202805.89271748
0.875132	10244348.817047697
0.877317	15579859.71095788
0.879511	16478062.505382624
0.881713	15440081.169516208
0.883923	17368838.525310025
0.886142	19293667.700647354
0.888369	18144595.805333585
0.890604	21582501.40583095
0.892847	17251629.386884224
0.895099	15019801.009965999
0.897358	23021805.70486778
0.899626	27002789.05599774
0.901901	30345837.196912542
0.904185	35211355.6629106
0.906476	32176332.96306374
0.908776	29920811.199013066
0.911083	33064292.60801743
0.913398	36154157.183740504
0.915721	41433694.88512474
0.918051	43301948.86635752
0.92039	49342096.400678635
0.922736	48547427.409710504
0.925089	46211472.161170885
0.927451	38985958.34392287
0.929819	29845446.123330407
0.932195	26665799.94667873
0.934579	28203461.72787328
0.93697	46907548.85808127
0.939369	50498864.5505764
0.941774	49241526.939531036
0.944187	42944184.6689245
0.946607	54346264.79098071
0.949035	56418191.28846853
0.951469	44828585.646420084
0.953911	48519823.948755994
0.956359	41337205.231592804
0.958814	54663575.96337457
0.961277	42289457.02556691
0.963746	39092766.46908294
0.966222	54867567.49649628
0.968705	60154559.0406875
0.971194	67400463.69421843
0.97369	63431490.166434646
0.976193	76657620.19847351
0.978702	74306678.65841734
0.981217	80285297.30469422
0.983739	72914992.61624941
0.986268	86067190.25727677
0.988802	86599878.09262107
0.991343	64041803.649040066
0.99389	73557839.26493555
0.996444	74213623.70922956
0.999003	46324924.13788434
1.00157	43769295.411429845
1.00414	50961729.57343587
1.00672	51706963.006752
1.0093	53832786.11325848
1.01189	56210942.786733896
1.01448	70170811.80598678
1.01708	70910113.82605985
1.01969	85208531.64686333
1.0223	86725981.74980152
1.02492	86541191.8872689
1.02754	83330085.89106879
1.03017	100567125.52068919
1.0328	103615705.70337366
1.03544	103122864.27897067
1.03808	123174434.62207997
1.04073	122580933.54475719
1.04339	121598995.24781308
1.04604	115811477.08949389
1.04871	114326903.20460647
1.05138	116208090.40935428
1.05405	125461867.98476969
1.05673	119863034.14796858
1.05941	134532057.50583574
1.0621	130755005.2004414
1.06479	141495472.2775939
1.06749	145914804.6785266
1.07019	161288685.13793597
1.07289	156570167.67559853
1.0756	165004767.88149256
1.07832	172049992.37868148
1.08104	168923685.0032921
1.08376	180565011.6160391
1.08649	162546293.21346962
1.08922	153082016.29691726
1.09195	139733416.83533695
1.09469	137165284.07651567
1.09743	107407573.35657495
1.10018	99826713.25342548
1.10293	82874627.00610518
1.10568	63995886.97544399
1.10844	77687974.64141124
1.1112	64830708.01940165
1.11396	55601381.763759665
1.11673	44735933.5223089
1.1195	63408352.450362474
1.12228	52112447.315470986
1.12505	62892942.125328794
1.12783	81031983.6039025
1.13062	70968287.16159086
1.13341	32357969.114695232
1.1362	40918626.24143758
1.13899	44463862.19169889
1.14178	67216245.40420958
1.14458	60786734.264492676
1.14738	65288576.468165696
1.15019	97224140.61990148
1.153	75019019.06307623
1.1558	61670931.4733017
1.15862	87407009.81621063
1.16143	57601333.44780508
1.16425	42887762.47258808
1.16707	42996955.594571754
1.16989	46268731.24165353
1.17271	68601892.52624074
1.17554	50786701.509472564
1.17837	37061833.475991
1.1812	77798383.8512522
1.18403	83465721.82283081
1.18686	84800939.2038596
1.1897	95539605.87025668
1.19253	105073050.79986724
1.19537	115107178.58137548
1.19822	116356108.55209431
1.20106	126277758.32772374
1.2039	131151683.96633777
1.20675	142005974.14858678
1.2096	157726925.33415717
1.21245	166657575.48704854
1.2153	173176508.84282708
1.21815	173634360.92233554
1.221	184736904.63497022
1.22385	197472653.6397661
1.22671	204473762.23701707
1.22957	209925016.23364317
1.23242	217456007.56745955
1.23528	206013572.83032182
1.23814	208577677.13317823
1.241	184444365.84156486
1.24387	146742250.26373222
1.24673	206267961.68054476
1.24959	172483202.72212327
1.25245	104572378.03487188
1.25532	192349947.73260322
1.25818	230787203.9757374
1.26105	252418235.59648517
1.26392	227483723.6671355
1.26678	250395536.91511473
1.26965	234850137.0069592
1.27252	258785864.0187419
1.27538	262152788.56078357
1.27825	254722736.78091756
1.28112	260417399.19891962
1.28399	220048640.5588942
1.28686	231680244.27912796
1.28973	224284852.107731
1.2926	230817810.49903977
1.29546	203849319.78145042
1.29833	188209503.93021333
1.3012	221983465.92033115
1.30407	229814561.25759956
1.30694	193480825.68844762
1.30981	208876219.56335077
1.31267	213232176.19575953
1.31554	182856179.19859076
1.31841	168101182.8866866
1.32128	186187667.37762934
1.32414	135031953.4126958
1.32701	89619780.91444165
1.32987	73885039.98042801
1.33274	42143519.473852895
1.3356	29196073.791025598
1.33847	8931294.239748893
1.34133	7450036.916271292
1.34419	9731806.493930474
1.34705	8041443.78866877
1.34991	10113654.182765115
1.35277	11999215.371726327
1.35563	4806210.37544597
1.35849	5196746.600988567
1.36135	7285189.253339673
1.3642	10500183.00373426
1.36706	10255684.693640988
1.36991	9420745.288841262
1.37277	10121695.707011271
1.37562	7696849.996604789
1.37847	6161341.285414449
1.38132	8633074.833523458
1.38417	4760196.780384845
1.38701	1668609.1848594316
1.38986	6980000.539804976
1.39271	8481681.97786363
1.39555	5848176.280797158
1.39839	9509088.041973216
1.40123	12579114.293012056
1.40407	11596184.052395683
1.40691	8424581.675571287
1.40974	6076100.585328724
1.41258	9317820.007856315
1.41541	9773509.415398765
1.41824	4640163.121624211
1.42107	3289869.7582536307
1.4239	3461344.5690248986
1.42673	9774635.41907877
1.42955	12792757.487253482
1.43237	8673394.63958895
1.43519	12698820.651608955
1.43801	14578873.253386935
1.44083	12415149.151857413
1.44365	14526687.34883427
1.44646	12867659.782382993
1.44927	16363999.847965311
1.45208	22129613.98111566
1.45489	17082030.519396313
1.45769	25994751.963470004
1.4605	23897912.693326037
1.4633	14048352.764634533
1.4661	22367427.436959524
1.4689	22114799.341294985
1.47169	21887393.883550026
1.47449	22041987.131069835
1.47728	22815263.64959312
1.48007	23345699.429812323
1.48286	26430697.999572564
1.48564	24407719.670306917
1.48842	25446974.835081637
1.4912	30114499.48940134
1.49398	25298254.044048533
1.49676	32677903.193803333
1.49953	34743951.97003568
1.5023	43979489.96955932
1.50507	51071318.32860673
1.50784	42700658.56793444
1.51061	47604384.11351583
1.51337	52178312.41381529
1.51613	41824232.492224716
1.51888	37126221.67338716
1.52164	44435203.64761626
1.52439	55370583.54830365
1.52714	47098253.58656094
1.52989	50481039.250081785
1.53263	60531306.72204148
1.53538	69813902.62045072
1.53812	64599670.78840837
1.54086	58612661.926628776
1.54359	52425935.26548121
1.54632	67880887.4324252
1.54905	70895987.53138499
1.55178	71659620.08848996
1.5545	71945866.76346964
1.55723	74091394.87517211
1.55995	81801502.09106061
1.56266	80137205.50927092
1.56538	87231391.77035801
1.56809	100497146.58137207
1.5708	97537641.66435002
1.57351	99925775.34707199
1.57621	99214522.33004571
1.57891	97539409.90087529
1.58161	104468188.40428008
1.5843	104917302.39488173
1.587	107212712.28976688
1.58969	103071145.36543714
1.59238	96834562.93685688
1.59506	105666702.50258626
1.59774	109667727.76478206
1.60042	104418377.92116655
1.6031	100422572.20363002
1.60577	94802515.7694296
1.60844	89819062.45773058
1.61111	97553173.05685037
1.61378	95518472.33135396
1.61644	89303130.5996477
1.6191	83616084.99636321
1.62176	91092721.80215217
1.62441	90803037.2303241
1.62707	93615023.32975848
1.62971	86837663.896272
1.63236	93748773.03694564
1.635	102340812.16073251
1.63764	107260327.30130142
1.64028	85489886.43996048
1.64292	88485057.23978251
1.64555	80889939.73891668
1.64818	87496295.87127309
1.65081	98578387.50304642
1.65343	93395137.57658064
1.65605	84071814.12489568
1.65867	84303818.93082325
1.66128	99649125.30080754
1.6639	86192210.93132262
1.66651	36164631.67688282
1.66911	24009956.38850488
1.67172	50470606.79804367
1.67432	71328674.59721708
1.67692	82089524.74179327
1.67951	78263956.09258884
1.68211	69748870.59492145
1.6847	55072743.46234812
1.68728	58240230.97342259
1.68987	56611194.04388353
1.69245	48483641.860752724
1.69503	46293782.6030582
1.6976	47019448.16335253
1.70018	49167655.49248933
1.70275	40560703.103121676
1.70531	37113232.36620016
1.70788	46365717.918883145
1.71044	52694487.09117869
1.713	56183376.63049561
1.71556	58472305.13706222
1.71811	60380601.367552385
1.72066	51467638.499172814
1.72321	34605449.86542286
1.72575	41658429.47858851
1.7283	52162449.830330595
1.73084	50415263.75654275
1.73337	38397669.28946668
1.73591	36624122.40306811
1.73844	39854764.89995885
1.74097	36317505.828716785
1.74349	33295725.018026013
1.74602	36201556.734327324
1.74854	45144657.79703685
1.75105	44344106.97059589
1.75357	32883151.146186244
1.75608	24224173.894553166
1.75859	24911471.48330719
1.7611	24914831.882787503
1.7636	26805917.6952415
1.7661	24740213.34102057
1.7686	21380154.623748265
1.7711	23989627.329854436
1.77359	20798076.203622628
1.77608	14727497.582699839
1.77857	18429467.725938585
1.78105	21372680.956186656
1.78354	16216689.720310617
1.78602	14384112.92932361
1.78849	17490512.61985548
1.79097	15571057.08160309
1.79344	14202867.472252317
1.79591	16853771.003085285
1.79837	21798416.74507493
1.80084	15442258.1297672
1.8033	14399484.807659093
1.80576	14760615.76300832
1.80821	14400632.685992789
1.81067	14439046.96976742
1.81312	16354541.56356577
1.81557	17908556.158653945
1.81801	12599180.283068113
1.82046	10884901.917554136
1.8229	13376217.209208166
1.82533	12168132.48066667
1.82777	11221773.01045412
1.8302	12304784.08869627
1.83263	11802189.003763817
1.83506	11326026.089390479
1.83749	12224210.352357171
1.83991	12999703.15407638
1.84233	14235749.93564901
1.84475	15838198.322219126
1.84716	13491985.275271432
1.84957	14130363.454409854
1.85198	15272164.297622465
1.85439	12090330.966056198
1.8568	8639091.141950402
1.8592	6519229.193755793
1.8616	7346231.461940404
1.864	7946204.790677048
1.86639	7152217.463217006
1.86878	6772377.730098162
1.87118	9822096.053832352
1.87356	10886838.043972347
1.87595	10829633.59983316
1.87833	15205994.240179354
1.88071	19177540.422906887
1.88309	16824367.656642172
1.88547	15515303.593968535
1.88784	18350038.5341126
1.89021	19815299.91652484
1.89258	21882627.631479695
1.89494	24028887.006165985
1.89731	21064522.979529336
1.89967	16600671.898336684
1.90203	16519466.897845415
1.90439	17195829.20278765
1.90674	21928137.310435258
1.90909	23858113.082479514
1.91144	15854458.940775393
1.91379	14526363.485314822
1.91613	20811089.994465373
1.91848	22611381.031397905
1.92082	18137841.55391326
1.92315	15571732.338464282
1.92549	16944035.86086119
1.92782	17650755.756171994
1.93015	14638435.411002448
1.93248	12330491.743447851
1.93481	10990563.252524467
1.93713	8075083.6855349075
1.93945	6967308.130180963
1.94177	11742025.820005942
1.94409	15136586.136459941
1.94641	14637787.310711922
1.94872	15503665.897898572
1.95103	19554560.537454598
1.95334	18825211.5146652
1.95564	13652389.423027517
1.95795	11924258.149629172
1.96025	10301679.055171566
1.96255	9898210.28154566
1.96484	13773185.800477397
1.96714	16293548.684686877
1.96943	15165675.578847438
1.97172	16667561.979712445
1.97401	17675937.768643275
1.97629	17317942.90560078
1.97858	18232314.257727038
1.98086	16114721.186889434
1.98314	13082563.68047703
1.98541	15279406.148936663
1.98769	19861063.91999875
1.98996	18842006.521825016
1.99223	16902829.905191
1.9945	19186750.233600345
1.99677	19962135.248818632
1.99903	18343077.13179019
2.00129	17630135.41674061
2.00355	19082575.770658784
2.00581	21812121.222385637
2.00806	21532158.78106594
2.01031	21877573.612268414
2.01256	27511737.79634572
2.01481	29864511.749802005
2.01706	25437005.135121867
2.0193	24950832.512006886
2.02154	29515338.41841327
2.02378	30174569.37279643
2.02602	25856352.738173895
2.02825	24475221.03898071
2.03049	27185319.94639559
2.03272	31653347.65334247
2.03494	32628714.224787097
2.03717	31254318.75552541
2.03939	31841073.993836597
2.04162	34680958.70240846
2.04384	37419649.706969015
2.04605	37417234.18299276
2.04827	35022365.886363685
2.05048	35214796.05520946
2.05269	35055691.59547851
2.0549	32037779.879503474
2.05711	34385171.0253698
2.05931	36953727.15929298
2.06151	36384656.9994952
2.06371	36487951.970641725
2.06591	36155766.940699324
2.06811	37655836.13941401
2.0703	40345701.24652472
2.07249	41759079.41585531
2.07468	40991899.86090269
2.07686	39428872.664252214
2.07905	40231164.655879796
2.08123	42456275.31319987
2.08341	43540430.009635136
2.08559	42814192.40123861
2.08776	42861044.14175042
2.08994	43896599.78639047
2.09211	44042376.37526647
2.09428	44743227.20656757
2.09645	45803096.24404178
2.09861	44765165.306677856
2.10077	42584558.52604168
2.10293	42048454.95868415
2.10509	43305701.44227407
2.10725	43602871.621700875
2.1094	40909973.09084714
2.11155	36949830.460758165
2.1137	36236842.64532677
2.11585	37314442.97115619
2.11799	38402938.02405232
2.12013	40410989.298997514
2.12227	41472343.27201636
2.12441	41813167.986799315
2.12655	41462077.186028734
2.12868	39928840.93577417
2.13081	39444158.55250897
2.13294	39705998.15509635
2.13507	37864388.218404554
2.13719	36262212.25233175
2.13931	37349248.08443994
2.14143	38382187.106133826
2.14355	37554644.231305465
2.14567	35868993.69868907
2.14778	33107437.396410424
2.14989	31098096.33703499
2.152	31141944.49188797
2.1541	31076209.943039767
2.15621	30730698.359409105
2.15831	30008881.395456262
2.16041	28458561.244157996
2.16251	28256013.83636713
2.1646	28639387.994535074
2.1667	28615909.105061352
2.16879	29544757.308126263
2.17087	30544142.606676474
2.17296	29856785.522651926
2.17504	28981126.864302747
2.17713	28810183.168687806
2.1792	27394068.547850847
2.18128	23645918.194071922
2.18336	19662535.358751282
2.18543	18659568.14282161
2.1875	19087323.84577597
2.18957	18541169.520826537
2.19163	18492182.792650424
2.1937	19239378.589133684
2.19576	17788148.777660035
2.19782	13710401.369535662
2.19987	9545771.870848706
2.20193	7409571.129103092
2.20398	6774213.447014163
2.20603	6420067.666017099
2.20808	6601117.89038182
2.21012	7078369.7453611605
2.21217	7601365.795036804
2.21421	8904882.010560617
2.21625	10283582.200565439
2.21828	10760109.92298493
2.22032	11193004.808312507
2.22235	11487249.4185368
2.22438	10890003.526794398
2.22641	9446172.31107424
2.22843	8905813.179144481
2.23046	8754043.918290248
2.23248	7810140.560817859
2.2345	6826568.661705125
2.23651	6138180.694631203
2.23853	5874252.1099482365
2.24054	6409244.227987285
2.24255	7525282.412571695
2.24456	8593017.920724642
2.24657	9065315.039965156
2.24857	8887950.486837704
2.25057	8327067.343050423
2.25257	7712965.831934968
2.25457	6898257.829008569
2.25656	6072342.01140647
2.25856	5540414.577964608
2.26055	5308164.638767995
2.26254	4715823.464760294
2.26453	4226987.231941654
2.26651	4279121.0056901
2.2685	4498027.864926894
2.27048	4634261.789562805
2.27246	4899315.113453136
2.27443	4952938.037646015
2.27641	5066817.464531862
2.27838	5413630.806520372
2.28036	5290667.322514208
2.28233	4736277.476597368
2.28429	4266513.320461379
2.28626	3916765.8070588773
2.28823	3643883.7972012567
2.29019	3437182.167501733
2.29215	3259008.6891765404
2.29411	3195088.7035182896
2.29607	3286688.6744340262
2.29802	3706293.511499977
2.29998	4451803.185873103
2.30193	5379877.871614955
2.30388	6133996.595743428
2.30583	6566746.394658907
2.30778	7103054.057260216
2.30972	7703181.354148326
2.31167	7895589.202859929
2.31361	6835817.325301717
2.31555	5112681.542406532
2.31749	3733338.6002398403
2.31943	3391170.828233259
2.32137	3156516.8402178846
2.32331	2692921.3081006613
2.32524	2248067.3969389116
2.32718	1882152.4003981093
2.32911	1703522.213122062
2.33104	1808845.0822134244
2.33297	2103365.5182904373
2.3349	2547675.1786312675
2.33683	3209467.002482866
2.33876	3747554.436024722
2.34068	4065140.1412803126
2.34261	4297284.509488055
2.34453	4588900.894052567
2.34646	4825667.149175904
2.34838	4831861.240649103
2.3503	4526437.646684485
2.35223	4381388.96244523
2.35415	4219062.5648944
2.35607	3811817.3841550294
2.35799	3924243.206208198
2.35991	4674177.36919338
2.36183	5483679.175112527
2.36375	5979210.510062341
2.36566	6254176.421281431
2.36758	5999712.198276471
2.3695	5425309.682423851
2.37142	4982091.473022882
2.37334	4634852.346432121
2.37526	4010338.4373446847
2.37718	3349763.0635128226
2.3791	3050295.599903021
2.38101	2956804.6814949866
2.38293	2935525.5382159236
2.38485	3222534.504305543
2.38677	4073843.0190125494
2.3887	4896429.185566514
2.39062	4970576.640042227
2.39254	4772563.779307106
2.39446	4988772.309472883
2.39639	5301988.555472304
2.39831	5210775.041576358
2.40024	5145479.059921919
2.40216	5392640.914788421
2.40409	6054798.307774723
2.40602	6291385.124380536
2.40795	6134199.60352931
2.40989	6450576.388866056
2.41182	7215901.133443266
2.41376	7486934.264582084
2.4157	7631619.229727122
2.41764	7593648.250068629
2.41958	7384006.9801435815
2.42152	7027251.742149633
2.42347	6958554.227391767
2.42542	6989801.458904901
2.42737	7689612.262200564
