#wavelength	surface flux
0.676892	39357.45088398356
0.678297	41189.68405869851
0.679702	42921.52521822233
0.681109	44559.88181049952
0.682517	46020.72435758116
0.683926	47401.47467406279
0.685337	48608.33224680475
0.686749	49612.79827830543
0.688164	50403.95590293155
0.689581	50951.383063094465
0.691	51014.18409100005
0.692422	50148.462314801494
0.693847	50506.163096186654
0.695274	50444.567676088955
0.696705	50326.423116544654
0.698139	49878.82916794328
0.699576	48845.38946317045
0.701017	47766.149569530746
0.702461	46311.13348551304
0.70391	45243.4148163948
0.705362	43701.78640236625
0.706819	42158.56173465435
0.70828	40546.47644646788
0.709745	38537.009956177106
0.711216	36657.1252204418
0.71269	34670.540384863605
0.71417	32834.25381012469
0.715655	30154.859693620612
0.717145	27036.2375723825
0.71864	24907.09418700779
0.72014	23651.196868785006
0.721647	22217.905222104266
0.723158	20930.546779436267
0.724676	19063.818105529237
0.726199	17248.046040992158
0.727728	15304.332353671862
0.729264	14559.72874473471
0.730805	13089.646444322241
0.732353	12650.280577871603
0.733907	11695.57599690251
0.735468	10388.634112491338
0.737035	9824.165780001986
0.738609	8975.888721776668
0.74019	8275.164054552697
0.741777	7603.92285065939
0.743372	7030.364090138191
0.744973	6463.246128652421
0.746582	5913.7027571388335
0.748197	5400.424647204261
0.74982	4968.86616435826
0.751451	4536.861409087622
0.753088	4123.411320081836
0.754734	3724.5640989122867
0.756386	3330.3117813380295
0.758047	2918.4994282222183
0.759715	2475.933007712481
0.76139	1986.7654168348752
0.763074	1428.0638072494864
0.764765	763.2290600970053
0.766464	256.50422321893654
0.768172	516.5137374416914
0.769887	374.93572878095483
0.77161	1151.6297407802056
0.773341	2132.718071632514
0.775081	2997.982184702858
0.776829	3830.1650508278144
0.778585	4248.756400955763
0.780349	4035.42576165169
0.782121	6396.386197397599
0.783902	7651.377459483009
0.785691	8888.170014493333
0.787489	10304.516460979363
0.789295	11870.845708617004
0.79111	13596.287756749443
0.792933	14280.400671983722
0.794764	10615.953653875222
0.796604	18804.490001877333
0.798453	23447.94749299401
0.80031	27187.476654793907
0.802176	31192.056819378224
0.804051	35971.85662253925
0.805934	40922.25764228647
0.807826	46704.562402503245
0.809727	52592.38260299284
0.811636	58326.16020683567
0.813554	62758.12803515297
0.81548	73972.67896809675
0.817416	85955.05478068026
0.81936	97367.9221422548
0.821313	110987.4841058024
0.823274	119753.2494676185
0.825244	135886.89146439132
0.827223	156320.79491556404
0.829211	171668.45992183714
0.831208	186165.48548976652
0.833213	212576.00952287792
0.835227	233682.25871773344
0.837249	253273.0289543442
0.83928	287820.1840327938
0.841321	317318.21219878225
0.843369	351069.1502933432
0.845427	381792.3013433805
0.847493	427486.742694243
0.849567	450604.93307334627
0.851651	335426.8109930593
0.853742	500557.98725946696
0.855843	604585.8298708454
0.857952	659945.5634454368
0.86007	716437.0761332521
0.862196	751786.2594235935
0.864331	813304.9465080763
0.866474	887278.3170084207
0.868626	965260.8690564713
0.870786	1037027.8125618751
0.872955	1118499.6228854493
0.875132	1187540.1239094979
0.877317	1277818.0975550236
0.879511	1357218.534354025
0.881713	1293504.438862836
0.883923	1278249.394902403
0.886142	1360538.8704007003
0.888369	1324051.8429466188
0.890604	1426772.459250381
0.892847	1161837.7319300612
0.895099	984752.9359722491
0.897358	1574511.7847587587
0.899626	1839279.0987646838
0.901901	2211072.8350211135
0.904185	2646881.5566565734
0.906476	2861463.8630917068
0.908776	2561422.6485654553
0.911083	2906342.119621287
0.913398	2820954.629955404
0.915721	3186326.510706736
0.918051	3166057.580055666
0.92039	3592729.9158557835
0.922736	3714280.6549408124
0.925089	3190722.23842933
0.927451	1843783.773315772
0.929819	988515.6136279312
0.932195	934320.3973464955
0.934579	1145250.0177823112
0.93697	2437878.975628076
0.939369	3208873.994308594
0.941774	3145438.671972455
0.944187	2439615.7788299657
0.946607	2761636.1280996446
0.949035	3016406.0311363554
0.951469	2227227.669512555
0.953911	2488004.4853708637
0.956359	1858265.2972759996
0.958814	2907225.9325412465
0.961277	1743595.367829846
0.963746	2496913.9865470803
0.966222	3343065.038642752
0.968705	4415357.176008939
0.971194	4976113.106496525
0.97369	4384927.759704499
0.976193	5660238.916930441
0.978702	5740369.552604993
0.981217	5932482.705616021
0.983739	5395725.198469122
0.986268	6795675.337048187
0.988802	7037419.600671226
0.991343	7708564.2676601615
0.99389	8643592.654825462
0.996444	9247742.187059235
0.999003	8699599.941540187
1.00157	9908119.92141311
1.00414	11205985.325040579
1.00672	12156223.789936898
1.0093	12604361.068798533
1.01189	13433330.983100077
1.01448	14308562.991933478
1.01708	14958505.540249547
1.01969	15691894.929771744
1.0223	16608622.584520942
1.02492	17487433.524966687
1.02754	18207264.08333431
1.03017	19008461.474827446
1.0328	18909660.001827907
1.03544	20290706.2665958
1.03808	21758847.66744455
1.04073	21887434.893472005
1.04339	22691167.40363725
1.04604	23396608.03222113
1.04871	23808438.397937495
1.05138	24492968.236949872
1.05405	25525550.632035233
1.05673	26069100.688070577
1.05941	26714762.58651624
1.0621	27095212.1733706
1.06479	27190095.771591898
1.06749	27470623.645954404
1.07019	27812985.618662246
1.07289	28177242.888738297
1.0756	28311185.924762856
1.07832	27647931.63651038
1.08104	27984147.33286166
1.08376	28302412.027747367
1.08649	25269712.627429966
1.08922	21139469.090155423
1.09195	17545499.02715127
1.09469	13742021.10128162
1.09743	10925487.324776063
1.10018	7441732.937884539
1.10293	4878840.655314372
1.10568	3249558.353083273
1.10844	3476438.139094305
1.1112	1931492.5887219675
1.11396	1585355.1643586562
1.11673	1291387.8579463996
1.1195	1700265.312691916
1.12228	1257875.9143146584
1.12505	2505204.0485027176
1.12783	2602964.0824921886
1.13062	2708382.369123578
1.13341	933685.1671481963
1.1362	1307968.2397907
1.13899	3459309.0653793127
1.14178	4168631.966683268
1.14458	2222235.8947572033
1.14738	2201729.833432168
1.15019	3764241.6879409356
1.153	2360555.900675891
1.1558	1879180.4575974003
1.15862	2873430.9585120017
1.16143	1599422.4999010914
1.16425	1510266.432235463
1.16707	2000474.505099291
1.16989	3136691.862909967
1.17271	4510096.243059762
1.17554	4666256.29126669
1.17837	4110865.084203221
1.1812	7959712.988987902
1.18403	8534891.963679977
1.18686	8485569.118897084
1.1897	10280762.579411859
1.19253	11832998.146033801
1.19537	13927329.478887346
1.19822	15064175.28198935
1.20106	16875194.258694388
1.2039	18520036.09163024
1.20675	21278816.471862096
1.2096	21294723.197202425
1.21245	21905557.246021993
1.2153	24186593.00035973
1.21815	23945293.43389415
1.221	26277179.94214843
1.22385	27779373.91284387
1.22671	29391121.817104287
1.22957	32652166.033368703
1.23242	33138774.08535165
1.23528	34085104.54611782
1.23814	34537423.560919635
1.241	33721304.979717895
1.24387	31326018.769736134
1.24673	36639520.8102892
1.24959	33272419.052497685
1.25245	27057632.74466206
1.25532	37256883.64299195
1.25818	41793600.168108396
1.26105	43903983.0808754
1.26392	41875702.36363426
1.26678	42495810.81631962
1.26965	40480496.90460856
1.27252	40800824.4267729
1.27538	40720331.57421164
1.27825	38924625.410043545
1.28112	36445776.43283597
1.28399	29205983.54468512
1.28686	27823709.34348795
1.28973	27181354.623209022
1.2926	25619108.630995568
1.29546	21981647.773864377
1.29833	21606025.453191873
1.3012	22915689.782567356
1.30407	24127908.76908153
1.30694	20725925.71000291
1.30981	21764509.002560593
1.31267	20071857.678076908
1.31554	16181047.73401441
1.31841	14407260.278997313
1.32128	18699445.17129906
1.32414	12011722.89984203
1.32701	8251486.376449436
1.32987	4320255.861364998
1.33274	2445382.6186029767
1.3356	1990247.2202066528
1.33847	328811.28086357494
1.34133	187030.74670652792
1.34419	258478.66201809226
1.34705	155070.97975237202
1.34991	171567.4592404182
1.35277	160591.64045307908
1.35563	62806.05823250792
1.35849	47603.186968494934
1.36135	72319.84758443832
1.3642	155359.50176958283
1.36706	125459.46001673471
1.36991	125888.52015323217
1.37277	133765.13287846747
1.37562	223703.61708205502
1.37847	204999.9066184283
1.38132	120431.9632113365
1.38417	50383.08347987901
1.38701	27008.882092216856
1.38986	120542.54491447046
1.39271	190988.01179790302
1.39555	78636.18133775055
1.39839	102265.37207851885
1.40123	149789.9245297102
1.40407	184450.5823898561
1.40691	155922.9711294508
1.40974	100099.56779405942
1.41258	159762.29545387707
1.41541	231869.53312852103
1.41824	115211.65229864545
1.42107	59442.31380737173
1.4239	67186.91717444075
1.42673	254203.38725026726
1.42955	442812.4779593578
1.43237	290444.7914937787
1.43519	459865.80123962485
1.43801	477894.6220132957
1.44083	433263.6468452366
1.44365	578757.9429556637
1.44646	455962.9718605678
1.44927	786539.2747721284
1.45208	1319117.3963744724
1.45489	860021.9778808017
1.45769	1470122.2904252226
1.4605	1437146.2814060196
1.4633	926467.537147089
1.4661	1549641.2757089618
1.4689	1353367.612402559
1.47169	1279926.8868709342
1.47449	1050426.0766158977
1.47728	980090.0110845354
1.48007	990396.9760545806
1.48286	1404921.8318088325
1.48564	1339228.077355957
1.48842	1305316.4920702951
1.4912	1529179.9581188117
1.49398	1288640.2541404762
1.49676	1581742.818555091
1.49953	2253720.3568829033
1.5023	2600899.301224508
1.50507	3024653.0157078844
1.50784	2961373.6426327103
1.51061	2965413.976562875
1.51337	2578687.6672696704
1.51613	2372410.1583994627
1.51888	2481430.461672006
1.52164	3299282.9372001616
1.52439	3964055.479095435
1.52714	3712327.247029942
1.52989	4538699.303860968
1.53263	5316880.853980706
1.53538	6136187.985436949
1.53812	6476764.761402186
1.54086	5021938.143844645
1.54359	5923228.77676103
1.54632	6937273.892771601
1.54905	6683316.075244092
1.55178	6402275.191765287
1.5545	7789783.142930367
1.55723	8880932.474211505
1.55995	10046852.924077926
1.56266	9642139.92433626
1.56538	12510758.877659768
1.56809	14454480.863403192
1.5708	14205238.03464753
1.57351	13567798.261098795
1.57621	14676122.350308932
1.57891	14435052.517344242
1.58161	15317368.567890014
1.5843	15171478.894170476
1.587	15085406.389719697
1.58969	14198196.756834632
1.59238	12904751.14646932
1.59506	13951209.566951577
1.59774	14422086.369012581
1.60042	13073191.24006716
1.6031	11503366.749216268
1.60577	10308628.948272277
1.60844	9151173.74616098
1.61111	8623521.638436424
1.61378	7472229.754109654
1.61644	6428744.977488667
1.6191	5532256.970711284
1.62176	6047243.115668241
1.62441	6144849.282453032
1.62707	5893608.42190147
1.62971	5713641.931736505
1.63236	5451543.171323542
1.635	6678683.290351121
1.63764	7586418.222765462
1.64028	7002850.018673664
1.64292	6683735.055496058
1.64555	5363533.862607471
1.64818	4878952.359741254
1.65081	6774697.841957787
1.65343	7116556.912966889
1.65605	4885862.275919748
1.65867	5453094.901925603
1.66128	7785368.926644298
1.6639	5770126.635677071
1.66651	1335800.1826843696
1.66911	573842.1055084324
1.67172	2395032.0508320704
1.67432	4197606.130226379
1.67692	5094522.744369424
1.67951	4465465.73914283
1.68211	3273560.712509402
1.6847	2331703.913195535
1.68728	2267063.505061409
1.68987	2186483.2221528487
1.69245	1597258.27808782
1.69503	1629733.3080272935
1.6976	1395660.0958543464
1.70018	1295536.1826398964
1.70275	1062297.7877552237
1.70531	1147210.4359437774
1.70788	1879374.231263283
1.71044	2704458.9988272744
1.713	3579690.6451745415
1.71556	3876299.382005474
1.71811	3849063.1621017866
1.72066	3229506.284422954
1.72321	2104309.5405507516
1.72575	2895623.483684771
1.7283	3354293.932185035
1.73084	3283808.5853862874
1.73337	2585218.181890838
1.73591	2356386.2726248736
1.73844	2862090.5368819637
1.74097	2892654.616746658
1.74349	2825319.251979815
1.74602	3107304.7202083473
1.74854	3821311.521103456
1.75105	3735395.684691499
1.75357	2608662.347263049
1.75608	1411235.6495040192
1.75859	1461021.8813261697
1.7611	1447903.4775131748
1.7636	1442725.7832552907
1.7661	1432844.388136907
1.7686	1180869.7400019052
1.7711	1371520.8887779845
1.77359	1279688.8571166405
1.77608	867743.0244866114
1.77857	1015168.6425154132
1.78105	1250260.6158664129
1.78354	863644.1279946167
1.78602	622869.6696202854
1.78849	822037.5676510643
1.79097	728896.8360002452
1.79344	583122.5460908212
1.79591	745050.3326994881
1.79837	1085087.977870676
1.80084	661066.9486356286
1.8033	440519.6458226778
1.80576	473877.8396370858
1.80821	496583.63426446734
1.81067	505821.96766890684
1.81312	653831.7788171434
1.81557	686510.8362125588
1.81801	463413.3715699619
1.82046	370053.7003491034
1.8229	525463.7613596244
1.82533	479578.2143426427
1.82777	290379.99236536113
1.8302	288709.0002181474
1.83263	328325.82350808644
1.83506	294240.69944323646
1.83749	256620.2769097265
1.83991	303478.97885379405
1.84233	458734.738494254
1.84475	714131.4980474508
1.84716	525306.0229334332
1.84957	557157.6507854619
1.85198	795431.7695042532
1.85439	568210.4312423856
1.8568	300113.65370544494
1.8592	185132.3479154902
1.8616	227225.65507411407
1.864	261416.97179147357
1.86639	204488.39943368765
1.86878	133147.56871268494
1.87118	188107.07658486883
1.87356	247053.03668944002
1.87595	375574.33880818944
1.87833	821048.3469805392
1.88071	1049099.8010669155
1.88309	843881.1911829738
1.88547	700599.7114760579
1.88784	829850.820896189
1.89021	857355.1803435431
1.89258	1012395.9494908539
1.89494	1377296.017992925
1.89731	1182260.2902804816
1.89967	697335.8325235888
1.90203	659169.7996939258
1.90439	583693.6256771637
1.90674	674045.9525324221
1.90909	670563.1061703997
1.91144	304882.49178846035
1.91379	260245.5485557254
1.91613	533996.4132712584
1.91848	628150.6894822335
1.92082	408648.7546729936
1.92315	327032.42435415875
1.92549	371564.1609386384
1.92782	368254.7947433854
1.93015	281346.15365738265
1.93248	210015.52330927053
1.93481	215599.79832931125
1.93713	207472.99807186014
1.93945	208087.3607345118
1.94177	376303.5751941565
1.94409	431691.27046033315
1.94641	347974.8799021302
1.94872	301351.8440877783
1.95103	375382.0247273264
1.95334	411953.8904654295
1.95564	365493.0197806662
1.95795	397520.78772132343
1.96025	355891.7997827586
1.96255	320227.0044645159
1.96484	503776.08085376443
1.96714	682385.6397794719
1.96943	658724.055963446
1.97172	651060.1674441701
1.97401	639928.2880140737
1.97629	676702.6612484946
1.97858	737310.1057127302
1.98086	578514.2665040026
1.98314	437486.05249495036
1.98541	664278.6291228494
1.98769	951724.7927153489
1.98996	842356.5356123501
1.99223	734033.9138300708
1.9945	990344.6491121404
1.99677	1221967.3498450432
1.99903	1244976.0353378449
2.00129	1222731.2903712022
2.00355	1150926.8795227623
2.00581	1192087.677978183
2.00806	1325219.479983474
2.01031	1404517.2779012797
2.01256	1611062.4074187803
2.01481	1658427.1555657496
2.01706	1434168.1647621389
2.0193	1385633.0375515616
2.02154	1641062.326504686
2.02378	1870183.7808889423
2.02602	1744859.826328491
2.02825	1469759.9406552725
2.03049	1519700.8576335292
2.03272	1852201.8395688357
2.03494	2076581.3468707653
2.03717	2033152.5492867394
2.03939	1994670.89423203
2.04162	2367030.9357255828
2.04384	2749022.861208811
2.04605	2891630.7782150568
2.04827	2779776.1671613986
2.05048	2711609.1300173244
2.05269	2773991.929833705
2.0549	2731304.6884746333
2.05711	2761849.867570232
2.05931	2821236.7380041387
2.06151	3020626.0100616603
2.06371	3259084.7319877404
2.06591	3274954.0404848987
2.06811	3226833.2142294664
2.0703	3385877.505322092
2.07249	3634291.664249721
2.07468	3732346.6944878083
2.07686	3783532.0694114245
2.07905	3795471.5223230566
2.08123	3697566.4358868217
2.08341	3680862.2139050094
2.08559	3741168.327604949
2.08776	3794575.975707375
2.08994	3835743.869074514
2.09211	3758548.9824073804
2.09428	3682110.38819354
2.09645	3719107.8747545513
2.09861	3694243.1847311733
2.10077	3576268.786249748
2.10293	3581451.115738435
2.10509	3718859.64359551
2.10725	3762829.1311450484
2.1094	3594538.7519751014
2.11155	3331372.811259733
2.1137	3259257.579771674
2.11585	3328113.075273603
2.11799	3394955.0188700235
2.12013	3466308.1276067533
2.12227	3438812.278812634
2.12441	3405281.354119012
2.12655	3381253.310963575
2.12868	3292557.5984569867
2.13081	3211660.0818742765
2.13294	3127847.963592901
2.13507	2944928.7077082796
2.13719	2844455.5307090343
2.13931	2981225.2260484537
2.14143	3038480.287835222
2.14355	2830920.04148585
2.14567	2538397.2491579694
2.14778	2268434.3399304086
2.14989	2138779.649823913
2.152	2150379.7767105224
2.1541	2100264.3630437586
2.15621	2003522.8424796101
2.15831	1867903.3744047757
2.16041	1546761.9977518523
2.16251	1307003.6038027916
2.1646	1376612.141554716
2.1667	1548273.936185484
2.16879	1689758.3420176206
2.17087	1807557.7104064007
2.17296	1802776.243707428
2.17504	1761936.9621183388
2.17713	1761229.5331860024
2.1792	1616143.341909368
2.18128	1321205.477098265
2.18336	1127955.6562233777
2.18543	1189528.4292208795
2.1875	1243708.2705964958
2.18957	1102910.3330432782
2.19163	943304.7948329825
2.1937	850353.5306421425
2.19576	729398.0174388997
2.19782	524450.5374293473
2.19987	307576.40290027426
2.20193	210453.70976207612
2.20398	220801.98896653284
2.20603	252284.07763066422
2.20808	268767.0787147669
2.21012	257068.26553494972
2.21217	244161.74448458088
2.21421	301047.0870974302
2.21625	378881.78963259596
2.21828	393907.6149015156
2.22032	371235.2433918669
2.22235	384012.365367103
2.22438	415464.76031697233
2.22641	359843.13391785166
2.22843	260329.83691721287
2.23046	196512.27389506274
2.23248	173321.68785878384
2.2345	165218.4236383581
2.23651	147906.53242444503
2.23853	146420.61651648663
2.24054	178929.22224553098
2.24255	214892.67181796837
2.24456	228869.7241444943
2.24657	210893.59261674812
2.24857	176661.012272094
2.25057	147963.65373759632
2.25257	119662.00803670996
2.25457	92942.9309370728
2.25656	88254.93844870426
2.25856	112702.6838275407
2.26055	133811.4180470979
2.26254	129387.45500857264
2.26453	118050.24389039374
2.26651	123564.81923960625
2.2685	130987.75431543842
2.27048	133622.46000571243
2.27246	156338.62475089743
2.27443	170230.09368956528
2.27641	169909.2647427918
2.27838	179855.5632278495
2.28036	180032.42990041623
2.28233	152030.94019858507
2.28429	125760.30376917019
2.28626	108195.6828025647
2.28823	93965.8565256451
2.29019	82605.00317201206
2.29215	74855.38786808496
2.29411	77485.56942809386
2.29607	89231.55055060438
2.29802	105196.66698180954
2.29998	126044.11462757326
2.30193	164369.25911682943
2.30388	206830.83995601136
2.30583	234883.67258224715
2.30778	269136.4778986183
2.30972	345265.51116176444
2.31167	421091.2627887222
2.31361	387036.4860221446
2.31555	250729.43558990472
2.31749	114838.65740043538
2.31943	67724.42678005228
2.32137	66544.93302272842
2.32331	69394.37845068703
2.32524	62220.97719997351
2.32718	49862.30250963296
2.32911	41372.98559123998
2.33104	40567.5797152116
2.33297	53139.36610104601
2.3349	80348.89519850948
2.33683	111499.8947189789
2.33876	125342.13992280522
2.34068	122938.4359417161
2.34261	117333.94770866909
2.34453	116744.46879118375
2.34646	126748.82574959195
2.34838	144514.22405491868
2.3503	149776.82371987787
2.35223	151413.16203061448
2.35415	146560.33357614742
2.35607	141248.56027327763
2.35799	173962.75166174586
2.35991	223393.75832232405
2.36183	251582.45657289214
2.36375	259295.01679641043
2.36566	264308.80422421434
2.36758	225869.33896843868
2.3695	165234.90923439013
2.37142	126767.7091595098
2.37334	125608.23189021093
2.37526	129544.48621096069
2.37718	127010.84793807368
2.3791	130173.39631908445
2.38101	138678.95728090522
2.38293	147959.99396194212
2.38485	155084.4656810828
2.38677	181389.01625526996
2.3887	221449.21370388323
2.39062	247184.23788314615
2.39254	255614.23464759177
2.39446	263549.8452106143
2.39639	270187.20846856316
2.39831	270609.7783313298
2.40024	304224.65050642105
2.40216	343790.0553689028
2.40409	362402.7132215158
2.40602	319156.2844862638
2.40795	276484.1858659245
2.40989	305627.466097564
2.41182	392581.66156168963
2.41376	433814.1513210625
2.4157	427801.92811848765
2.41764	415768.89300695027
2.41958	423627.0436564088
2.42152	427072.8555995955
2.42347	412776.38100871886
