#wavelength	surface flux
0.676892	15250.415377772966
0.678297	16091.036434988453
0.679702	16893.9098839063
0.681109	17675.709698759063
0.682517	18321.87150632325
0.683926	18984.35340324889
0.685337	19568.494093580674
0.686749	20023.63747502108
0.688164	20355.797898003904
0.689581	20526.590868839583
0.691	20443.713957387678
0.692422	19486.599393153643
0.693847	19903.823149902473
0.695274	19742.4456439226
0.696705	19746.137901472335
0.698139	19716.79743225087
0.699576	19189.979246179326
0.701017	18697.907524214064
0.702461	17929.79655674922
0.70391	17732.88704247485
0.705362	16989.270549909594
0.706819	16367.707739344683
0.70828	15818.324238436151
0.709745	14802.3540895709
0.711216	13971.701342007038
0.71269	13177.687620890652
0.71417	12473.79333514071
0.715655	10880.305426797482
0.717145	9246.952968864993
0.71864	8140.275132194452
0.72014	7718.498784006234
0.721647	7439.453293040597
0.723158	7521.352176302747
0.724676	6688.198261403109
0.726199	5882.687519618367
0.727728	5027.833825021149
0.729264	5162.482933867627
0.730805	4577.038046014131
0.732353	4910.931200809131
0.733907	4648.284499900823
0.735468	3934.334439500724
0.737035	4148.020331288655
0.738609	3893.3566788349067
0.74019	3693.30667318394
0.741777	3486.873695380833
0.743372	3365.997326313227
0.744973	3160.9284344162575
0.746582	2920.0974345303016
0.748197	2662.2451396707365
0.74982	2501.765978983846
0.751451	2280.2504982815262
0.753088	2060.218237680165
0.754734	1842.8847653459354
0.756386	1618.20904872622
0.758047	1383.394595840122
0.759715	1133.1694485495684
0.76139	876.1458660985865
0.763074	628.3071248109557
0.764765	344.4836043170059
0.766464	106.94530207821994
0.768172	227.22889988347777
0.769887	160.78869432028634
0.77161	520.256714842348
0.773341	945.2020672998079
0.775081	1368.703766735962
0.776829	1823.7843202902113
0.778585	2095.9433580800383
0.780349	2042.7533624071461
0.782121	3257.090830007819
0.783902	3898.099186431032
0.785691	4519.742359634574
0.787489	5301.109250554675
0.789295	6120.94806717018
0.79111	6991.514478612915
0.792933	7295.215165932584
0.794764	5410.094857618698
0.796604	9251.141786324219
0.798453	11249.434986839091
0.80031	12842.847630713388
0.802176	14405.735671723904
0.804051	16599.272859527322
0.805934	18330.973191247274
0.807826	20667.961436231926
0.809727	22661.267966000018
0.811636	24040.590315753874
0.813554	24170.45650283905
0.81548	29030.321561360994
0.817416	34904.37487701103
0.81936	40020.822114897615
0.821313	45640.8794520805
0.823274	47645.310309915105
0.825244	52227.926688054125
0.827223	64367.631657152095
0.829211	69326.20921881782
0.831208	73789.98516810786
0.833213	86981.21840246786
0.835227	95475.96125160136
0.837249	96327.79347296244
0.83928	116598.81322180205
0.841321	132000.54427671325
0.843369	145510.17125006337
0.845427	157563.92690530574
0.847493	187536.9589107551
0.849567	189118.33312340293
0.851651	145942.57459251967
0.853742	225807.26578712487
0.855843	269563.8756225156
0.857952	293121.7353121841
0.86007	322132.90124433744
0.862196	335211.06135788345
0.864331	359816.34740438237
0.866474	403808.19862212695
0.868626	448466.6696828971
0.870786	484910.433664264
0.872955	533370.8018163255
0.875132	560799.8276034456
0.877317	587064.2218472165
0.879511	608711.5879920417
0.881713	462653.2649969691
0.883923	373239.9073536325
0.886142	411567.0529171598
0.888369	348958.970388637
0.890604	392163.3725046597
0.892847	310385.03102362546
0.895099	256209.55774991328
0.897358	456670.6944825783
0.899626	562996.809977929
0.901901	738771.2069536386
0.904185	1069075.6011368984
0.906476	1248794.038891823
0.908776	1045396.9003257796
0.911083	1167316.5871290748
0.913398	1023236.324598949
0.915721	1266449.9195291668
0.918051	1195015.652635485
0.92039	1352328.2226604673
0.922736	1307235.3011592282
0.925089	927088.4840353762
0.927451	449063.7199251723
0.929819	170730.49734667342
0.932195	139839.3006536845
0.934579	137411.95541155324
0.93697	630100.0467005937
0.939369	899970.0437967227
0.941774	716001.0553127418
0.944187	538691.7982645631
0.946607	707928.1528704108
0.949035	942876.2715024244
0.951469	422832.95315962925
0.953911	473554.3412903817
0.956359	432290.3416583778
0.958814	643546.8563236742
0.961277	296081.0132860449
0.963746	571868.6411096411
0.966222	711625.116015127
0.968705	1026050.1288994784
0.971194	1127603.8932736984
0.97369	1013155.0300500938
0.976193	1331892.9585389337
0.978702	1232718.8589227945
0.981217	1173165.9424348352
0.983739	845991.7890302308
0.986268	1343032.7755136462
0.988802	1414833.303986204
0.991343	1420263.1122814952
0.99389	1864404.4820849544
0.996444	2242539.851726916
0.999003	1937489.1108799956
1.00157	2882907.172304317
1.00414	3553513.469660388
1.00672	4393873.735979647
1.0093	4180254.9768510615
1.01189	4664342.391351313
1.01448	4951365.725634255
1.01708	5424758.544250075
1.01969	5462506.366395212
1.0223	5826270.430961934
1.02492	6206031.636294469
1.02754	6879528.826732148
1.03017	7139151.222432532
1.0328	6697800.377040129
1.03544	8109862.036859397
1.03808	9041335.707696553
1.04073	8516648.705036815
1.04339	9187452.844805218
1.04604	9964800.84700064
1.04871	10182078.79694347
1.05138	10488383.252284197
1.05405	11632472.352419956
1.05673	11703207.829959964
1.05941	12299406.922177223
1.0621	12599987.442988873
1.06479	12227991.400420384
1.06749	12150905.059057027
1.07019	12807745.115638956
1.07289	12818092.32373046
1.0756	12528723.710156418
1.07832	11353858.212997194
1.08104	11879303.955813877
1.08376	11539507.469527278
1.08649	9587310.42604986
1.08922	6245127.49117462
1.09195	4642242.664457579
1.09469	3507988.0058020465
1.09743	2885655.4572027232
1.10018	1837749.055906929
1.10293	1154981.4916620327
1.10568	787000.5260492725
1.10844	899608.4085789702
1.1112	420783.3667923211
1.11396	359729.96262391336
1.11673	229411.154912906
1.1195	265909.56138235406
1.12228	130964.92460173876
1.12505	346606.43187742267
1.12783	481792.2507518043
1.13062	562005.6949871858
1.13341	106329.74566538935
1.1362	168332.05445410966
1.13899	470252.10595494916
1.14178	736138.7592978355
1.14458	422793.34267991665
1.14738	302500.20847264305
1.15019	603732.8130414358
1.153	339789.8131466106
1.1558	227505.8590280842
1.15862	428420.40563810855
1.16143	144700.06002335393
1.16425	99825.41357299917
1.16707	285422.24931558175
1.16989	428524.43812191614
1.17271	666690.9261140446
1.17554	901428.7896012176
1.17837	572409.9580667772
1.1812	1617310.4551904576
1.18403	1988067.0759293083
1.18686	1670568.6976333286
1.1897	2333154.506938265
1.19253	2665382.2554530585
1.19537	3216489.859146926
1.19822	3152240.3615436833
1.20106	3803585.6570969075
1.2039	4793417.917207763
1.20675	6032722.743486134
1.2096	5789815.58714502
1.21245	5934172.236782531
1.2153	6731456.72580216
1.21815	5840033.069846402
1.221	7123608.890060239
1.22385	8378461.886114405
1.22671	9088304.323056053
1.22957	11879347.653021503
1.23242	11923018.787413558
1.23528	12048804.8130501
1.23814	12532308.833274389
1.241	13947375.196900439
1.24387	13519245.525708038
1.24673	15707009.87705854
1.24959	14579321.421052573
1.25245	12569778.180358985
1.25532	17745314.40081296
1.25818	18358634.720133375
1.26105	19036789.62843461
1.26392	14335436.867690554
1.26678	15822213.64925089
1.26965	12716331.07818035
1.27252	15217763.575712418
1.27538	15678605.688438158
1.27825	13327285.384169599
1.28112	12757890.078016678
1.28399	9010466.794013068
1.28686	7748778.435147462
1.28973	7440412.27537298
1.2926	7285441.940506921
1.29546	5776127.183784886
1.29833	5488260.740319601
1.3012	6775858.486377334
1.30407	6758092.9005305255
1.30694	5427054.941479615
1.30981	5133164.886970891
1.31267	5578884.598396482
1.31554	3696599.5081540137
1.31841	3177669.8831934975
1.32128	5204018.211054808
1.32414	2819887.0109672355
1.32701	1563711.9290994885
1.32987	613219.1091912494
1.33274	607477.7182395153
1.3356	444124.1390413094
1.33847	51890.19345831732
1.34133	44547.74671599172
1.34419	63790.406383952446
1.34705	26785.310467511586
1.34991	41236.70741650422
1.35277	31084.26026871464
1.35563	11319.095083683713
1.35849	7134.974311781314
1.36135	12609.476101812461
1.3642	29043.80402177565
1.36706	14848.652986696243
1.36991	12978.258342169818
1.37277	15622.041036124132
1.37562	19608.095555952066
1.37847	15466.351020091854
1.38132	23882.123036612546
1.38417	6029.878400136399
1.38701	2328.367161688174
1.38986	17993.845917337752
1.39271	43860.30342836207
1.39555	14904.752757683687
1.39839	10453.910481631146
1.40123	16868.003253820527
1.40407	15877.925982452914
1.40691	15429.027932888182
1.40974	9668.793172005033
1.41258	28062.190573811105
1.41541	46084.175476804616
1.41824	19584.93160607681
1.42107	4539.12624464313
1.4239	7440.685302856848
1.42673	46127.07225735297
1.42955	99873.68343091346
1.43237	58976.26377233575
1.43519	107291.2519070527
1.43801	101220.71618831492
1.44083	68805.93513868097
1.44365	80766.8845048318
1.44646	79143.55289513982
1.44927	157602.47011655752
1.45208	320249.1132116973
1.45489	218200.3863359196
1.45769	316911.7600919434
1.4605	230893.20287487126
1.4633	179098.08525584816
1.4661	330587.53131651913
1.4689	290296.45222216955
1.47169	178864.96594660386
1.47449	140929.89191445458
1.47728	138821.5017746214
1.48007	119615.42072389163
1.48286	198728.35869776912
1.48564	223206.22453744305
1.48842	261001.42445167922
1.4912	319773.9980174311
1.49398	142091.41399510344
1.49676	219932.92641246878
1.49953	302578.59658321174
1.5023	457927.1601567221
1.50507	585286.7574612739
1.50784	552881.9432357525
1.51061	420425.36756094533
1.51337	362900.7653194958
1.51613	281132.4988007362
1.51888	264179.6467266434
1.52164	442994.97708274744
1.52439	689276.4825709244
1.52714	568593.3797427093
1.52989	806327.519923059
1.53263	1051173.83186525
1.53538	1215652.0619601703
1.53812	1315928.4601336592
1.54086	841223.6790464147
1.54359	993631.1381761968
1.54632	1148677.4624479085
1.54905	1055057.505309209
1.55178	1114952.9189823624
1.5545	1341731.0705558422
1.55723	2016383.3246824762
1.55995	2561672.934101264
1.56266	1903556.1355293004
1.56538	3736135.07744936
1.56809	4937931.396902386
1.5708	4285008.213725399
1.57351	3634409.3233967694
1.57621	4124586.0881906636
1.57891	3923326.035528323
1.58161	4903423.629086153
1.5843	4498680.943986268
1.587	4405147.162989667
1.58969	4090909.113987133
1.59238	3291433.1163898073
1.59506	4214116.852211755
1.59774	4628585.974709147
1.60042	3767767.7025834676
1.6031	2709203.235924644
1.60577	2426587.558493453
1.60844	1854031.1649533948
1.61111	1466527.0701703527
1.61378	1068606.9120364848
1.61644	1021127.8743971606
1.6191	869441.1673442628
1.62176	1108881.895104344
1.62441	1358425.5915796042
1.62707	1585956.53483157
1.62971	1787543.6014449024
1.63236	1092052.2897998907
1.635	1597500.2000222555
1.63764	2050485.9861164952
1.64028	1618264.7200933094
1.64292	1143113.1852856337
1.64555	686087.1033844426
1.64818	495451.6031781125
1.65081	1244497.9923135173
1.65343	1714598.341323456
1.65605	960149.6466205763
1.65867	744941.808930213
1.66128	1299417.7532907708
1.6639	889581.3806708507
1.66651	157870.89209385306
1.66911	36802.445294238256
1.67172	193974.91776500604
1.67432	473667.145724281
1.67692	789865.6200223509
1.67951	537400.4432273566
1.68211	276812.0542370376
1.6847	165533.7361599717
1.68728	123615.18648289735
1.68987	117510.4087501585
1.69245	81029.22729252497
1.69503	80133.40677278092
1.6976	72199.88135459037
1.70018	68053.58665485644
1.70275	43676.69340014516
1.70531	65789.56221709368
1.70788	131506.8529668777
1.71044	334586.2444342943
1.713	617598.9631722948
1.71556	693882.7972276964
1.71811	652289.9287348645
1.72066	419972.22590912454
1.72321	212449.57035945053
1.72575	424539.1338182532
1.7283	566828.3854615589
1.73084	568140.5767198262
1.73337	295721.79588325607
1.73591	202272.2209521405
1.73844	358991.11536363035
1.74097	382093.8355177107
1.74349	433963.56470170646
1.74602	609290.857083691
1.74854	792323.6212736579
1.75105	824421.7913329852
1.75357	604932.0021384468
1.75608	229335.73459184027
1.75859	142325.82999595042
1.7611	126823.40683202764
1.7636	178157.05496250666
1.7661	236331.55251169682
1.7686	213378.77771112268
1.7711	297583.937918948
1.77359	215055.00032331413
1.77608	119961.2167976482
1.77857	296326.04983556515
1.78105	457814.85837173014
1.78354	281645.55686726765
1.78602	160290.09966426404
1.78849	178978.68919643713
1.79097	150804.33793344535
1.79344	123044.78341371322
1.79591	174253.54640390404
1.79837	321379.58362879767
1.80084	203493.2219151897
1.8033	122925.97986324919
1.80576	127275.48168416914
1.80821	145259.64457189702
1.81067	153051.57680875412
1.81312	207586.62746431926
1.81557	204563.4028737024
1.81801	94645.50806755634
1.82046	75741.8054390797
1.8229	141021.79494533094
1.82533	116437.90087515161
1.82777	64569.24105717143
1.8302	69840.91857448967
1.83263	67977.65452729247
1.83506	46647.285847373285
1.83749	40881.63594852983
1.83991	64113.92009213405
1.84233	131801.6589572588
1.84475	230485.8497734047
1.84716	149501.93364159545
1.84957	135152.57031940474
1.85198	207131.26581701072
1.85439	143118.9757007502
1.8568	65356.93063193526
1.8592	33991.59170314833
1.8616	50311.44276000474
1.864	61999.80992062028
1.86639	41014.65281525823
1.86878	23062.904399021605
1.87118	38804.52021921356
1.87356	49001.017726464896
1.87595	86193.12474249919
1.87833	248110.06361755155
1.88071	309804.74763579527
1.88309	205360.57303892708
1.88547	173895.47594070795
1.88784	237077.67284721613
1.89021	257969.11193480113
1.89258	309797.9082307237
1.89494	480663.95396835904
1.89731	417046.51282527746
1.89967	199870.53153370845
1.90203	159626.5151157343
1.90439	139281.8807298423
1.90674	158382.1815048959
1.90909	147122.35651942855
1.91144	52941.468205616104
1.91379	42487.48528664553
1.91613	114415.18112134443
1.91848	137272.13614695595
1.92082	77420.98508194879
1.92315	61142.687421189854
1.92549	69261.71102462737
1.92782	64935.595476002316
1.93015	45766.94290250324
1.93248	27426.716603136276
1.93481	29480.192635587155
1.93713	35169.16344200613
1.93945	40250.967358671565
1.94177	77101.75816092532
1.94409	84309.06098110741
1.94641	67383.35813788656
1.94872	53714.91857498681
1.95103	63472.716731963505
1.95334	78182.09503867972
1.95564	85059.59593965669
1.95795	96815.4778283113
1.96025	73334.87989918627
1.96255	60733.68787753836
1.96484	108569.03028739677
1.96714	156393.0566649819
1.96943	151645.32566181757
1.97172	158068.55959162535
1.97401	146755.02000070023
1.97629	127625.56239624921
1.97858	147314.23119206727
1.98086	122281.10668762031
1.98314	82313.22203494518
1.98541	134670.01657556687
1.98769	219364.13633095185
1.98996	201334.8986375003
1.99223	170987.17953167338
1.9945	244430.87413328805
1.99677	330233.8388275766
1.99903	367479.09371951746
2.00129	341774.5803411422
2.00355	286117.22147517226
2.00581	330218.4879773035
2.00806	428715.7430259618
2.01031	409261.02184566885
2.01256	402783.0722090344
2.01481	407406.62678071513
2.01706	342076.7060582849
2.0193	305069.42059708375
2.02154	370189.90754508355
2.02378	457011.8959003417
2.02602	445902.3360627459
2.02825	373244.81218646467
2.03049	390946.885505993
2.03272	499519.99389778473
2.03494	550400.0686245767
2.03717	511706.7506993046
2.03939	531206.0738159479
2.04162	713277.4977579204
2.04384	895869.719325304
2.04605	972828.5912003802
2.04827	910712.434283227
2.05048	900623.6372775119
2.05269	945674.696441539
2.0549	852535.6497806609
2.05711	793202.0497316767
2.05931	800883.5430588531
2.06151	956789.3376897539
2.06371	1131982.3689450428
2.06591	1115237.2880844153
2.06811	1073858.5627536606
2.0703	1217641.2613015946
2.07249	1442859.8886526257
2.07468	1568044.1069420928
2.07686	1604977.5039911089
2.07905	1544973.0391943185
2.08123	1397735.4739809718
2.08341	1359423.5698418263
2.08559	1430338.2215910652
2.08776	1507750.8646229038
2.08994	1549320.376397544
2.09211	1467115.4439423252
2.09428	1382427.1225105315
2.09645	1404031.611441401
2.09861	1373562.467282182
2.10077	1282964.749317847
2.10293	1313069.0025156734
2.10509	1442736.5787324405
2.10725	1488584.6796466892
2.1094	1333546.0854642168
2.11155	1109811.7490133645
2.1137	1060788.1897846851
2.11585	1113271.0034974623
2.11799	1192560.70017187
2.12013	1292184.007330197
2.12227	1288730.6539285497
2.12441	1245073.6402953642
2.12655	1206914.8482027745
2.12868	1157753.6867355632
2.13081	1123747.9638134986
2.13294	1065310.8403402076
2.13507	949708.7192124445
2.13719	877176.5419903533
2.13931	958519.6583811028
2.14143	1005660.8234476546
2.14355	867899.597356791
2.14567	706882.6071705787
2.14778	600183.8114852913
2.14989	555847.6719876609
2.152	580159.2098397497
2.1541	581985.7549282085
2.15621	539789.2943734353
2.15831	462003.2919108267
2.16041	319589.1421800407
2.16251	213930.89809476942
2.1646	216505.75366578842
2.1667	260046.22916064208
2.16879	320703.25625754317
2.17087	398964.5629840124
2.17296	429195.1599166182
2.17504	441522.52190417843
2.17713	464819.9738950974
2.1792	422507.58224014577
2.18128	323786.0322562865
2.18336	245456.7700037861
2.18543	238328.0470505389
2.1875	239684.18775483547
2.18957	189794.18342088893
2.19163	140487.09067557342
2.1937	130523.7143551374
2.19576	115806.29923739674
2.19782	72596.54298036842
2.19987	30653.50026465599
2.20193	16368.049223148462
2.20398	20287.631996502954
2.20603	25642.82003689873
2.20808	29006.921418364218
2.21012	28397.10881921617
2.21217	29178.268337617184
2.21421	41283.25353560957
2.21625	50301.853847388564
2.21828	45031.895788192516
2.22032	37483.23025755061
2.22235	39230.92441406478
2.22438	46773.57141516555
2.22641	42745.099873222156
2.22843	30174.07694748853
2.23046	19587.892083207447
2.23248	13503.263023250418
2.2345	11806.605918437444
2.23651	10135.428533408887
2.23853	9684.158174943115
2.24054	14312.247643606848
2.24255	20009.038169704727
2.24456	21703.795167024648
2.24657	19015.491134608466
2.24857	15069.36913308788
2.25057	11715.620947517868
2.25257	8171.827257669829
2.25457	5349.498295160181
2.25656	4896.688833162256
2.25856	6999.212021420779
2.26055	8531.990536692761
2.26254	8473.60690366538
2.26453	9232.090202371828
2.26651	10949.917436334721
2.2685	10590.054171450533
2.27048	9802.6962431133
2.27246	12899.918315826257
2.27443	14984.4300530783
2.27641	14597.51337971383
2.27838	15652.084653211812
2.28036	16204.093711074236
2.28233	13725.216675921161
2.28429	11248.364091287654
2.28626	9252.365671068836
2.28823	7083.369402332109
2.29019	4866.138998091701
2.29215	3607.3115387984335
2.29411	4275.592030622458
2.29607	6252.295403409709
2.29802	8212.849514766793
2.29998	10598.14359505301
2.30193	15484.002594633928
2.30388	21099.39911390537
2.30583	24841.25044864181
2.30778	30973.506673415184
2.30972	45815.820367287895
2.31167	62879.72750217952
2.31361	60935.74167320486
2.31555	39556.56787833671
2.31749	15079.90841707101
2.31943	5245.634789397788
2.32137	3668.167241044386
2.32331	3987.3186059712616
2.32524	3729.7682971374657
2.32718	3147.5551844292827
2.32911	2398.743261095555
2.33104	1843.4391937752853
2.33297	3073.668159485599
2.3349	7265.274046225669
2.33683	11762.482923054367
2.33876	12467.49690317774
2.34068	10379.68570438001
2.34261	8355.86319393984
2.34453	7792.470060253357
2.34646	9848.486787485213
2.34838	14812.112971118648
2.3503	17986.08840525673
2.35223	18842.6890973154
2.35415	17552.522909991083
2.35607	16898.146872025107
2.35799	21848.572269573848
2.35991	29015.96540600407
2.36183	33012.78766853143
2.36375	32619.74425868087
2.36566	29479.458596168326
2.36758	21406.996248055264
2.3695	14168.51976843189
2.37142	11476.293555439415
2.37334	12939.09901819602
2.37526	13952.959641122688
2.37718	13442.827593303116
2.3791	12992.311225228807
2.38101	13572.303831316864
2.38293	15269.439372977877
2.38485	17010.102351867867
2.38677	20780.112203883087
2.3887	25387.70662199091
2.39062	27368.24614262423
2.39254	27793.4151926494
2.39446	28824.92098849903
2.39639	30593.257369201252
2.39831	33775.74460434527
2.40024	44657.75297443571
2.40216	55822.535862324556
2.40409	62757.2672143389
2.40602	55605.142908750335
2.40795	43636.87001555926
2.40989	41473.61144654497
2.41182	52849.15026418794
2.41376	62224.617197995336
2.4157	68684.87054498523
2.41764	71486.53846078576
2.41958	69236.05662570096
2.42152	62039.58017716097
2.42347	56132.28552015226
2.42542	57889.59058229428
