#wavelength	surface flux
0.676892	333400.3237267715
0.678297	354974.9297337559
0.679702	377649.95529601246
0.681109	399188.658787937
0.682517	417169.98450750514
0.683926	436713.48262007715
0.685337	452775.9581930854
0.686749	465649.4398473018
0.688164	477082.0029530734
0.689581	483985.3488147893
0.691	472059.565114456
0.692422	480843.8068327596
0.693847	473381.38613276574
0.695274	490981.50758786604
0.696705	490504.7541058344
0.698139	492579.7182765926
0.699576	489279.2432748141
0.701017	479484.4644284825
0.702461	475107.95901780506
0.70391	467293.5859517846
0.705362	447290.1219026771
0.706819	433483.99698660325
0.70828	422005.4369003741
0.709745	398735.74322587147
0.711216	383852.5978859476
0.71269	367045.78219241445
0.71417	349387.2208968581
0.715655	317656.751762031
0.717145	292542.6739639587
0.71864	263050.0086371553
0.72014	252471.85709027806
0.721647	239630.61137053615
0.723158	237857.1366046418
0.724676	215506.07098852462
0.726199	196194.58173435676
0.727728	167102.45910851698
0.729264	167530.65743095466
0.730805	149745.16015530314
0.732353	143032.14762010155
0.733907	128814.79320184221
0.735468	107731.61987644777
0.737035	104873.96516772284
0.738609	94576.21100856867
0.74019	84571.62371849098
0.741777	74782.4712266566
0.743372	66153.94614892844
0.744973	57474.20767016775
0.746582	49171.288775430876
0.748197	41358.76871387262
0.74982	35243.938672118056
0.751451	29120.520936962228
0.753088	23751.02867919982
0.754734	19037.371522861686
0.756386	14899.356858803021
0.758047	11341.943304776745
0.759715	8315.360567994427
0.76139	5747.8892651195165
0.763074	3578.288034693953
0.764765	1646.6653094206392
0.766464	414.5942314965712
0.768172	984.936315515428
0.769887	661.6663857073048
0.77161	2627.6764657777017
0.773341	5658.8978461896195
0.775081	9217.211659850303
0.776829	13595.224340199498
0.778585	16947.706216066796
0.780349	17744.81560317538
0.782121	32951.783320132294
0.783902	43666.7679891922
0.785691	55432.744903448336
0.787489	69955.96747506839
0.789295	86592.78259782348
0.79111	104461.9472274755
0.792933	112234.05792038202
0.794764	76509.2219786541
0.796604	158251.46948444072
0.798453	205461.59112848077
0.80031	244553.7939587482
0.802176	284765.2406606929
0.804051	331542.2729768897
0.805934	378072.13520074333
0.807826	431234.0614675014
0.809727	485124.09464914014
0.811636	539933.2675631379
0.813554	596480.1788267493
0.81548	667383.3904523989
0.817416	753967.0742369188
0.81936	762721.1327739678
0.821313	951036.404274452
0.823274	1082321.4071301064
0.825244	1148561.6119009107
0.827223	1324963.3602107207
0.829211	1383798.6478129355
0.831208	1508293.1942026871
0.833213	1771254.6748146384
0.835227	1897045.0667819974
0.837249	1858178.277524115
0.83928	2188391.8142766883
0.841321	2482948.725720334
0.843369	2638385.3782584895
0.845427	2802052.2827264685
0.847493	3183280.331789466
0.849567	3036121.303773566
0.851651	2165175.6286743185
0.853742	3480155.02050497
0.855843	4194308.822845282
0.857952	4513519.397799633
0.86007	4844041.64007658
0.862196	3736074.2630429566
0.864331	4032033.78318464
0.866474	4599783.307783908
0.868626	4695413.380645188
0.870786	4685716.333684115
0.872955	5014138.377966172
0.875132	4627889.471893319
0.877317	6404955.588621798
0.879511	6744275.585592008
0.881713	5807869.369058279
0.883923	5967299.382028699
0.886142	7008227.661307179
0.888369	6496662.924262662
0.890604	7462519.573172339
0.892847	5972810.281736975
0.895099	5068059.013599127
0.897358	8391674.156675061
0.899626	9810527.713226654
0.901901	10467787.654633667
0.904185	13302950.129163388
0.906476	13338187.16933388
0.908776	11004556.92601399
0.911083	13109747.316688905
0.913398	13319375.73661601
0.915721	16140829.713348933
0.918051	16646739.624824231
0.92039	17914858.323709965
0.922736	16622040.312367251
0.925089	14889147.52253119
0.927451	11746557.389638817
0.929819	7986370.2148964675
0.932195	5293726.621456229
0.934579	4673362.232741881
0.93697	13407665.66023671
0.939369	15466053.48559583
0.941774	12423388.74429978
0.944187	11114899.970209457
0.946607	15893918.929634517
0.949035	17435730.982225467
0.951469	9767387.45262798
0.953911	13256837.425076315
0.956359	11782228.64300001
0.958814	15672961.053840378
0.961277	11155716.807625443
0.963746	10409906.884389125
0.966222	15585455.723141216
0.968705	16508390.105420727
0.971194	18374099.091054916
0.97369	15970741.377146535
0.976193	21551296.505736113
0.978702	20517773.258471154
0.981217	20307119.80793175
0.983739	15152769.429398881
0.986268	20869536.1281586
0.988802	23454779.256210662
0.991343	18982913.616520926
0.99389	25448608.611832112
0.996444	28000357.428625144
0.999003	13162301.085468685
1.00157	16468548.534648985
1.00414	19144263.231173202
1.00672	21501838.644558452
1.0093	20462962.22892471
1.01189	23543546.209778342
1.01448	28712345.425100714
1.01708	28976662.767576743
1.01969	35576280.151148535
1.0223	36892616.526656665
1.02492	36625849.22009144
1.02754	37546554.30845194
1.03017	47412496.20431568
1.0328	44125079.26388489
1.03544	48145952.66149257
1.03808	59630461.5490425
1.04073	55066119.1196642
1.04339	57109568.05853027
1.04604	52903842.905097485
1.04871	53866022.478773974
1.05138	56738021.76892768
1.05405	63709247.91347923
1.05673	56323896.86301943
1.05941	68576845.80453391
1.0621	63175370.19414057
1.06479	68487846.53888956
1.06749	71713542.20834954
1.07019	83305849.65074901
1.07289	80292548.1508473
1.0756	80524352.53536336
1.07832	78500682.67271453
1.08104	81047038.34664023
1.08376	73937332.60913853
1.08649	70658102.65618631
1.08922	54518487.12647315
1.09195	39710925.35207703
1.09469	34629255.275823385
1.09743	26794602.481647115
1.10018	27775103.48878835
1.10293	21875054.37461249
1.10568	16788016.034930047
1.10844	19687063.720478293
1.1112	15490891.784964198
1.11396	12638400.909160255
1.11673	7879878.694920707
1.1195	12474014.699904582
1.12228	9997698.364063816
1.12505	11259353.769295026
1.12783	15926616.150092669
1.13062	15681170.425929764
1.13341	5393620.440221913
1.1362	6813765.030455147
1.13899	9252457.75071345
1.14178	14948777.022914683
1.14458	11861698.488692889
1.14738	13158839.511946576
1.15019	19291891.408548474
1.153	14617153.098809067
1.1558	9148161.04336991
1.15862	16247727.812354121
1.16143	9628387.878365133
1.16425	5507412.067360904
1.16707	11322052.804005668
1.16989	11138446.917047216
1.17271	16734267.998496953
1.17554	15489631.75861429
1.17837	9641204.98450691
1.1812	22677161.754898857
1.18403	28612512.3607803
1.18686	22403107.495371968
1.1897	25350089.86042071
1.19253	30834346.004946668
1.19537	38831667.770426966
1.19822	27545368.52768301
1.20106	27930528.60235765
1.2039	36429062.17163909
1.20675	45931845.78446358
1.2096	56211528.106564544
1.21245	55893285.64649735
1.2153	56466323.45371101
1.21815	55770343.7152851
1.221	57392333.08702095
1.22385	65287246.12316977
1.22671	65264507.1807316
1.22957	76624455.8900667
1.23242	77469967.76520681
1.23528	69643344.80005312
1.23814	77581775.84731743
1.241	86613250.48577109
1.24387	72766207.11225374
1.24673	94065131.24979794
1.24959	84167705.8365813
1.25245	56312801.90623648
1.25532	97047391.94840063
1.25818	101992568.00813363
1.26105	108563231.79566015
1.26392	72634245.10225055
1.26678	92389400.37182571
1.26965	73402111.34658207
1.27252	98932307.9005414
1.27538	104774156.6254579
1.27825	90937322.02603951
1.28112	98719352.90582928
1.28399	77034208.3109629
1.28686	79862588.35148667
1.28973	75124878.49209338
1.2926	78976967.52367003
1.29546	68265169.25032885
1.29833	56765437.98434981
1.3012	79789816.11088598
1.30407	80236653.82009996
1.30694	60064399.380954996
1.30981	59943759.157155596
1.31267	70642519.21348691
1.31554	51809504.421216495
1.31841	49164258.03127244
1.32128	49989883.531487726
1.32414	35105074.145992406
1.32701	19673506.90391151
1.32987	13473237.194352426
1.33274	12085073.02180884
1.3356	9270052.697625281
1.33847	2892350.298752302
1.34133	2398692.17929329
1.34419	2448175.780627098
1.34705	2133972.8168797307
1.34991	3236143.0023199245
1.35277	3453509.4478631453
1.35563	1493738.6241556378
1.35849	1520374.5413838008
1.36135	1785307.5263104031
1.3642	2991073.2402806394
1.36706	2464519.812098349
1.36991	1879681.2726234042
1.37277	2535022.364650498
1.37562	1283738.4959453056
1.37847	984298.6836802039
1.38132	2983621.0572525086
1.38417	1199563.409398435
1.38701	238164.1611487648
1.38986	1360962.2568831844
1.39271	1900915.463875794
1.39555	1187572.0035643496
1.39839	2116489.4336725227
1.40123	3655882.833530559
1.40407	2892192.665638261
1.40691	1719340.7963596915
1.40974	1286327.4192882495
1.41258	2846184.974647245
1.41541	2664903.7836773363
1.41824	1191827.0538903011
1.42107	568332.138883679
1.4239	638706.0477683165
1.42673	2750082.450762366
1.42955	3725334.8722537393
1.43237	2058611.9920303833
1.43519	4276987.625837319
1.43801	5046978.099754496
1.44083	3364148.8724587397
1.44365	3531542.5966898073
1.44646	3197243.8671443323
1.44927	4295072.93296962
1.45208	7055193.3009247435
1.45489	6528587.521104894
1.45769	9658603.72077445
1.4605	7912166.311591407
1.4633	4637337.043831365
1.4661	6540352.836304105
1.4689	6193633.200324196
1.47169	5526387.268249094
1.47449	6626120.47904629
1.47728	6958084.360764072
1.48007	7021114.9308174215
1.48286	6343315.038695795
1.48564	5816237.8237043405
1.48842	7487242.28609735
1.4912	10619400.98513656
1.49398	6517483.642587461
1.49676	8605936.483274197
1.49953	9897555.109250277
1.5023	15786037.959609494
1.50507	17712632.185354013
1.50784	13781723.245563455
1.51061	14887821.099089477
1.51337	17100267.321969595
1.51613	12680597.299976392
1.51888	10798738.937373247
1.52164	13477635.076656783
1.52439	17299283.405165497
1.52714	11782686.309113007
1.52989	13049770.491117988
1.53263	17841211.441120364
1.53538	21378721.468293875
1.53812	15560685.140121797
1.54086	13657315.055055203
1.54359	11784934.980926624
1.54632	17963749.39790672
1.54905	20099608.224111628
1.55178	20099840.4355996
1.5545	17146722.659879316
1.55723	20438421.873563014
1.55995	23129135.464420136
1.56266	22315337.403320264
1.56538	27698564.895555805
1.56809	32352170.47928467
1.5708	27178806.474339336
1.57351	31204522.815277513
1.57621	29486032.371398054
1.57891	26952375.37687197
1.58161	33477406.793349113
1.5843	30840724.461124357
1.587	31332795.616207957
1.58969	31986844.477098648
1.59238	27782316.70217323
1.59506	34923118.25211291
1.59774	37756594.71528169
1.60042	29088230.753540445
1.6031	26534621.58260919
1.60577	25276211.32716705
1.60844	20379498.322944216
1.61111	23939104.750940718
1.61378	24673678.63297993
1.61644	25123400.524850454
1.6191	22340143.03247937
1.62176	23030772.21943736
1.62441	25266990.731775366
1.62707	29878783.660763398
1.62971	30567926.994530283
1.63236	29533636.6246072
1.635	39701733.60631283
1.63764	42415053.00317304
1.64028	27814876.268560816
1.64292	24444583.90237088
1.64555	20113068.512168564
1.64818	18994271.163952205
1.65081	30134522.051747467
1.65343	33230783.297151364
1.65605	23603690.92445604
1.65867	21504959.15904343
1.66128	32368292.409107376
1.6639	23370548.35302368
1.66651	5741564.817125354
1.66911	1626598.696669233
1.67172	6968740.045170103
1.67432	14107840.361012595
1.67692	21542107.808303747
1.67951	19627527.442549836
1.68211	15264871.369515471
1.6847	9382900.70140011
1.68728	8224186.85137168
1.68987	8809771.006332876
1.69245	7931922.36653027
1.69503	5682640.786693753
1.6976	6742878.036237617
1.70018	7698751.772384837
1.70275	4674680.140706537
1.70531	4253817.048189908
1.70788	6847209.553718525
1.71044	11315401.300538521
1.713	16558757.88994596
1.71556	18386186.424796928
1.71811	18072932.95526819
1.72066	12228390.221309101
1.72321	7138387.112204955
1.72575	10818269.186826542
1.7283	15376337.272621557
1.73084	15643788.362181447
1.73337	9261562.313202288
1.73591	7106491.060638773
1.73844	8807997.019473718
1.74097	7757515.178221367
1.74349	8335501.363954016
1.74602	11491045.493409738
1.74854	13808784.267319899
1.75105	14167297.244374534
1.75357	10939550.159074306
1.75608	6936925.113293329
1.75859	4910088.969918818
1.7611	4338884.210386303
1.7636	6409304.856597021
1.7661	6567484.680915443
1.7686	6213873.184255997
1.7711	8225392.247354401
1.77359	5448920.193563681
1.77608	3304862.558460243
1.77857	7025798.110864061
1.78105	9714838.078250939
1.78354	6902208.663752374
1.78602	5602020.790631377
1.78849	6098534.404124726
1.79097	5382421.264297448
1.79344	5214407.2274509035
1.79591	5903007.414888163
1.79837	8299813.784352877
1.80084	6223489.1410622625
1.8033	5765890.461046486
1.80576	5736059.394431811
1.80821	6324299.629100474
1.81067	6321774.612956559
1.81312	6925303.428081387
1.81557	7002403.996107413
1.81801	3618373.191213707
1.82046	3700220.966999902
1.8229	5531052.849027698
1.82533	4494433.452607647
1.82777	4202393.676093584
1.8302	5118488.644998932
1.83263	4624053.93256062
1.83506	3480807.607651073
1.83749	3824169.8431784115
1.83991	4829340.129554692
1.84233	5806883.406017532
1.84475	6656659.7397396
1.84716	5486923.554871777
1.84957	4642934.81654412
1.85198	4101918.1189136743
1.85439	4050667.8782036323
1.8568	3260285.7904936727
1.8592	2176218.4445998794
1.8616	2803741.785285916
1.864	3126985.032110806
1.86639	2364358.175151056
1.86878	2447957.196138809
1.87118	4307606.524326738
1.87356	4435497.851198437
1.87595	4053639.2435708195
1.87833	6908993.057188135
1.88071	8850559.00242021
1.88309	6803080.916307109
1.88547	6130395.66736551
1.88784	7536269.577791092
1.89021	8195891.808693089
1.89258	9092592.835950121
1.89494	11412315.90265222
1.89731	10168222.80705008
1.89967	6608887.593835538
1.90203	6168766.6142111765
1.90439	6863827.195626795
1.90674	8391242.929391598
1.90909	8542788.282431403
1.91144	5493824.629579292
1.91379	5764872.019862294
1.91613	8581837.955125254
1.91848	9391052.230100503
1.92082	7524659.599112795
1.92315	6483143.646171375
1.92549	7143441.5583492555
1.92782	7441644.80670502
1.93015	5657163.875504769
1.93248	3714549.024527338
1.93481	2827425.7731292653
1.93713	2148886.7629766236
1.93945	2470332.0397100397
1.94177	4680401.568515077
1.94409	6149486.370819483
1.94641	6527167.14776822
1.94872	7123330.304463454
1.95103	8636551.666459747
1.95334	8103390.823129546
1.95564	5804217.040954503
1.95795	5274865.858617125
1.96025	4237988.679927775
1.96255	3731687.376125534
1.96484	5620268.438489362
1.96714	7079003.982619578
1.96943	6551111.55475942
1.97172	7052335.588698676
1.97401	7276496.835266274
1.97629	6881690.8031723155
1.97858	7586382.453277026
1.98086	7045024.493414207
1.98314	5272355.762027362
1.98541	5533111.579308894
1.98769	8256096.650821999
1.98996	9189570.207333673
1.99223	8247840.5363816675
1.9945	8827395.707985707
1.99677	9374060.424969725
1.99903	8890247.211575804
2.00129	8442478.156965563
2.00355	8912274.42064071
2.00581	9854546.913273526
2.00806	10313390.172496729
2.01031	11587430.466652328
2.01256	14868856.577332089
2.01481	15846600.76176275
2.01706	13060231.791973531
2.0193	12421157.054789115
2.02154	14213256.226046627
2.02378	13984051.490353335
2.02602	11945599.07756286
2.02825	11400114.799719725
2.03049	12407237.173972998
2.03272	14877711.280219456
2.03494	15952945.056214718
2.03717	14968207.704105593
2.03939	14272429.0997803
2.04162	16134035.894269228
2.04384	18961323.04287136
2.04605	18912479.465347033
2.04827	17288913.507789925
2.05048	17769318.615968294
2.05269	17676714.571390253
2.0549	15512208.193904324
2.05711	16446344.143926932
2.05931	17905585.688084997
2.06151	17522815.91583718
2.06371	16659621.532971073
2.06591	15644953.911385054
2.06811	16692680.606191825
2.0703	18568072.48954052
2.07249	19805634.55648502
2.07468	20398127.52969693
2.07686	19579351.030515756
2.07905	19252812.31464715
2.08123	20282220.9664103
2.08341	20266672.8711424
2.08559	18741623.490296576
2.08776	18927424.505024016
2.08994	20394047.666127197
2.09211	20938299.262717083
2.09428	22125845.564268574
2.09645	23267872.944350418
2.09861	21943246.757587977
2.10077	19765726.361204486
2.10293	18839673.04810204
2.10509	18985791.373966105
2.10725	18910268.977238864
2.1094	16674129.215983164
2.11155	13630391.193704037
2.1137	13362635.995596124
2.11585	13977779.562146423
2.11799	14960508.586432073
2.12013	16959055.983560808
2.12227	17585454.33470497
2.12441	17744056.798196297
2.12655	17853282.62714827
2.12868	16818512.79349307
2.13081	16320854.61025267
2.13294	16008056.376922604
2.13507	13832810.6247938
2.13719	11923538.889262067
2.13931	12721548.623653498
2.14143	13795890.206155434
2.14355	13297662.316273507
2.14567	12644734.33651672
2.14778	10967508.702290965
2.14989	9179571.227440454
2.152	9245952.860675186
2.1541	9722294.471762381
2.15621	9747032.408434132
2.15831	9155074.038992383
2.16041	7528430.969723663
2.16251	6708969.953806508
2.1646	6817879.520942382
2.1667	6613402.714100181
2.16879	7097752.112785466
2.17087	8357058.36642188
2.17296	8588110.767744893
2.17504	8217476.075698545
2.17713	8265711.355256158
2.1792	8003680.987922693
2.18128	6851923.339778411
2.18336	4952193.122031268
2.18543	3688077.423294171
2.1875	3314908.9334497
2.18957	3088716.0070062876
2.19163	3249397.7436468694
2.1937	3888746.4544564215
2.19576	3659953.6851783604
2.19782	2317990.0836671735
2.19987	1134188.9706031387
2.20193	732663.9545745683
2.20398	744097.7014165098
2.20603	714035.024424527
2.20808	676262.8898116131
2.21012	721295.6073165544
2.21217	834941.5187982084
2.21421	1081197.2816551912
2.21625	1288851.1334038626
2.21828	1321564.0790945808
2.22032	1428533.1787429256
2.22235	1563172.9676840578
2.22438	1556799.0221856378
2.22641	1442903.4088412768
2.22843	1487509.4301832237
2.23046	1382862.486830623
2.23248	947813.2189611244
2.2345	604734.5608994942
2.23651	490982.4818460684
2.23853	517537.9020611868
2.24054	674421.6456373802
2.24255	888414.5001861637
2.24456	1058053.9797983312
2.24657	1122827.4493938014
2.24857	1102764.6686822118
2.25057	987337.6195639565
2.25257	786901.9177464733
2.25457	596833.4507671593
2.25656	511956.95103239064
2.25856	511817.38727861835
2.26055	522075.7848381343
2.26254	442639.6636195662
2.26453	359763.7736842289
2.26651	376384.3317020028
2.2685	439005.05397559574
2.27048	472130.4321843345
2.27246	474262.5737278313
2.27443	441951.19414881984
2.27641	438003.9657603049
2.27838	480418.0330516294
2.28036	492637.18879092135
2.28233	469515.2480894135
2.28429	428118.69182158366
2.28626	386103.3414277631
2.28823	346405.3946395521
2.29019	289154.71437059395
2.29215	222440.30168402757
2.29411	202500.49173307887
2.29607	240851.66018342826
2.29802	324053.1626841546
2.29998	450134.66346725874
2.30193	630038.2443977675
2.30388	770107.8426533829
2.30583	828887.078112305
2.30778	922778.0022718607
2.30972	1078271.7901277314
2.31167	1195616.7014955506
2.31361	1071020.746901334
2.31555	758638.7209957147
2.31749	437668.35741141724
2.31943	312114.45295826235
2.32137	260771.83777619267
2.32331	210065.23131623716
2.32524	174284.33639724168
2.32718	155899.7984526938
2.32911	155193.5803050096
2.33104	170158.0938775765
2.33297	194948.21947466885
2.3349	243628.42478959425
2.33683	328745.83901286084
2.33876	385004.2726838281
2.34068	399484.08551410615
2.34261	408232.56701106654
2.34453	452729.5205653236
2.34646	528207.2747851742
2.34838	597537.8340975716
2.3503	599915.5042794615
2.35223	582476.7343017439
2.35415	544415.3983855991
2.35607	465894.3497278803
2.35799	435137.24446884776
2.35991	508768.2223041368
2.36183	642895.6827206833
2.36375	754728.7301628512
2.36566	796567.0511381867
2.36758	765929.0476887842
2.3695	740054.6073173976
2.37142	757986.4589730586
2.37334	739198.6784935311
2.37526	598801.390556362
2.37718	426213.9502462858
2.3791	328700.75360404805
2.38101	293586.0961034076
2.38293	304350.5161954175
2.38485	387794.92068586976
2.38677	548420.430839732
2.3887	652570.8316308773
2.39062	611828.8196273536
2.39254	568993.7670876293
2.39446	682017.0589129278
2.39639	850049.3539703258
2.39831	947317.1792185719
2.40024	1007328.6498580769
2.40216	1093133.265849041
2.40409	1235703.478235855
2.40602	1246301.7086887818
2.40795	1125220.7935671972
2.40989	1065865.5969752995
2.41182	1159612.4566843226
2.41376	1266347.6625963552
2.4157	1448232.2116717447
2.41764	1533932.1478210087
2.41958	1434397.1713451021
2.42152	1206347.4905961799
2.42347	1106135.960589227
2.42542	1233894.8212329207
2.42737	1677032.9840882327
