#wavelength	surface flux
0.676892	27220.11795888501
0.678297	28411.34075718739
0.679702	29531.706927174408
0.681109	30592.68377961933
0.682517	31513.59266928566
0.683926	32396.145444121787
0.685337	33150.14060435417
0.686749	33769.52761415069
0.688164	34246.98168840841
0.689581	34553.46296084998
0.691	34511.07097407528
0.692422	33762.34935596776
0.693847	33985.095289017176
0.695274	33921.71062914247
0.696705	33861.295902620084
0.698139	33559.439180077
0.699576	32824.52292578518
0.701017	32087.641454686243
0.702461	31089.52011835326
0.70391	30423.611031011642
0.705362	29411.146984939995
0.706819	28411.915362610394
0.70828	27374.955485965198
0.709745	26035.030526593055
0.711216	24829.353460836137
0.71269	23521.053928841065
0.71417	22372.219405610867
0.715655	20558.116343033675
0.717145	18350.467090217866
0.71864	16908.976640216646
0.72014	16169.84344458401
0.721647	15291.44969527962
0.723158	14497.599375201049
0.724676	13272.715313840587
0.726199	12081.22129102663
0.727728	10786.611379618313
0.729264	10385.489973103138
0.730805	9400.139460642642
0.732353	9269.97900593208
0.733907	8707.10671506861
0.735468	7819.00912514895
0.737035	7503.8445412797155
0.738609	6946.467481686448
0.74019	6498.781030446419
0.741777	6059.891535164072
0.743372	5687.779814790275
0.744973	5305.345808668624
0.746582	4922.714642273715
0.748197	4560.500478268988
0.74982	4260.908860089752
0.751451	3946.12868350637
0.753088	3631.0433762874836
0.754734	3310.2919858342093
0.756386	2976.2765227478535
0.758047	2612.839185381219
0.759715	2219.637722318923
0.76139	1791.5821931912212
0.763074	1310.2140534465364
0.764765	714.625444649717
0.766464	223.41095756454635
0.768172	479.4311950665865
0.769887	336.6700844087457
0.77161	1071.446822002446
0.773341	1938.0517143838392
0.775081	2694.427947418448
0.776829	3428.3213895824374
0.778585	3765.857060008832
0.780349	3520.290341239836
0.782121	5636.745085641006
0.783902	6693.209191459114
0.785691	7679.606272869821
0.787489	8786.37338743124
0.789295	9986.792138894287
0.79111	11292.024390935001
0.792933	11748.559994555584
0.794764	8750.37963920746
0.796604	15099.98553222932
0.798453	18555.350921809644
0.80031	21262.840522108832
0.802176	24109.583746000462
0.804051	27516.407899003872
0.805934	30961.235623109606
0.807826	35001.12710954698
0.809727	38951.73916117894
0.811636	42648.04721811459
0.813554	45130.95255754791
0.81548	53129.64650912274
0.817416	61616.66036567379
0.81936	69684.63234366105
0.821313	79147.69381237058
0.823274	84166.98577239811
0.825244	95722.21949506106
0.827223	110175.2891344627
0.829211	120505.49242964736
0.831208	130125.54735222539
0.833213	148440.8504515535
0.835227	162905.19358410392
0.837249	176389.30070467296
0.83928	200659.29079713282
0.841321	220692.7466891555
0.843369	244203.8012095707
0.845427	265280.1208058737
0.847493	297607.9122050859
0.849567	314624.3240443895
0.851651	239942.84147711573
0.853742	351276.70167571853
0.855843	421053.75680012134
0.857952	458695.1027252856
0.86007	498538.7609026574
0.862196	529230.6193000835
0.864331	571203.4410615813
0.866474	622216.871883559
0.868626	677926.4372285861
0.870786	731837.2675785696
0.872955	791085.060251789
0.875132	843041.7491661144
0.877317	895077.989200146
0.879511	949041.8027777704
0.881713	896748.7448784
0.883923	876382.3383605727
0.886142	933455.281461343
0.888369	905778.5475166482
0.890604	973441.3560901876
0.892847	795462.5687867512
0.895099	675326.1144589473
0.897358	1064878.785554944
0.899626	1247763.6100141965
0.901901	1520513.121287683
0.904185	1852152.6308459316
0.906476	2016873.6111749124
0.908776	1786366.9716676108
0.911083	2028509.3680706026
0.913398	1952289.8428688305
0.915721	2212999.0247544246
0.918051	2188566.1252535423
0.92039	2494898.9548849016
0.922736	2590182.72144637
0.925089	2198309.155551314
0.927451	1204905.5917240186
0.929819	596017.3832754812
0.932195	575579.4634293619
0.934579	708891.9295579743
0.93697	1560205.0573086555
0.939369	2147412.956439376
0.941774	2096765.011150516
0.944187	1582730.1431091768
0.946607	1751760.480006793
0.949035	1932079.9740235412
0.951469	1435105.1074976674
0.953911	1579159.1336559723
0.956359	1164751.6337104046
0.958814	1843636.1361937847
0.961277	1078682.5241916697
0.963746	1635307.5257877165
0.966222	2187902.1683810507
0.968705	2995210.1909858515
0.971194	3393665.050411519
0.97369	2971265.327528115
0.976193	3831817.452463701
0.978702	3922988.55208616
0.981217	4055076.316538098
0.983739	3692650.6536934194
0.986268	4695892.133656989
0.988802	4838301.62260182
0.991343	5402430.495747738
0.99389	6080336.152023946
0.996444	6614463.807048781
0.999003	6489075.139820336
1.00157	7533307.657711894
1.00414	8496978.496613521
1.00672	9255861.683053233
1.0093	9511764.969372276
1.01189	10087675.043857137
1.01448	10597386.89517074
1.01708	11015472.191790637
1.01969	11368592.622538252
1.0223	12126252.182754932
1.02492	12833456.48086941
1.02754	13410453.056739224
1.03017	13854905.53239352
1.0328	13598121.613046175
1.03544	14781011.6079538
1.03808	15711197.88913526
1.04073	15870929.72464857
1.04339	16481818.344827883
1.04604	17115928.621916104
1.04871	17358476.28640563
1.05138	17825330.530058783
1.05405	18557377.66833765
1.05673	19058980.744417224
1.05941	19384349.696336173
1.0621	19731006.444499243
1.06479	19649031.044271097
1.06749	19790467.589337632
1.07019	19913886.727726858
1.07289	20200472.787073664
1.0756	20228253.805241626
1.07832	19640157.804436132
1.08104	19859208.14202109
1.08376	20072993.13467216
1.08649	17870579.32544078
1.08922	14914841.929112472
1.09195	12302923.509221489
1.09469	9548614.461806824
1.09743	7578567.391829999
1.10018	5034820.259678976
1.10293	3210851.3225926263
1.10568	2116542.153335594
1.10844	2189816.335370021
1.1112	1145422.3004782049
1.11396	933230.6169084981
1.11673	746518.7423515331
1.1195	967094.751824438
1.12228	710699.105487074
1.12505	1501240.293900999
1.12783	1527402.0811014154
1.13062	1641528.2312277593
1.13341	558427.0851171825
1.1362	790160.3431407389
1.13899	2259258.7500655064
1.14178	2670748.6693131123
1.14458	1339174.6981746731
1.14738	1323872.8550816355
1.15019	2242810.6248031924
1.153	1370278.7004773675
1.1558	1084137.2068379482
1.15862	1679716.239429801
1.16143	923129.053318496
1.16425	904522.558806804
1.16707	1233755.2793756307
1.16989	2024701.8883793605
1.17271	2930238.856254289
1.17554	3157804.541261038
1.17837	2870864.652863078
1.1812	5430438.665371768
1.18403	5852651.006538789
1.18686	5835168.349692568
1.1897	7110670.708821801
1.19253	8252073.198400011
1.19537	9706650.194670107
1.19822	10455771.45341323
1.20106	11704193.690779656
1.2039	13002774.886367274
1.20675	14966974.327793417
1.2096	14668082.333515693
1.21245	15094059.803366538
1.2153	16746379.988635916
1.21815	16423064.597707447
1.221	18199230.3484627
1.22385	19258079.23013789
1.22671	20527576.219286993
1.22957	23130955.55973809
1.23242	23452693.935754556
1.23528	24318753.343788635
1.23814	24640970.556389187
1.241	24622974.4456844
1.24387	23424948.88776441
1.24673	26847147.665982835
1.24959	24857209.717938602
1.25245	21202015.281158864
1.25532	27769774.581806242
1.25818	30696789.990023237
1.26105	32250083.298411336
1.26392	30920761.767886978
1.26678	31235223.53330536
1.26965	29807831.91445927
1.27252	29654649.213241212
1.27538	29365779.98114995
1.27825	27862798.02228101
1.28112	25786412.31271378
1.28399	20585741.18399044
1.28686	19216754.511071425
1.28973	18722054.03940979
1.2926	17507282.621147785
1.29546	15064843.607731724
1.29833	15085803.878673028
1.3012	15627121.012854746
1.30407	16389787.322533142
1.30694	14168060.890960328
1.30981	14814907.082612675
1.31267	13424015.099997932
1.31554	10819708.313777585
1.31841	9612489.182638938
1.32128	12790028.731744211
1.32414	8184488.129244599
1.32701	5725216.103517798
1.32987	2809742.7613210417
1.33274	1600794.3236283155
1.3356	1348352.217074762
1.33847	210945.47371049368
1.34133	112290.16884570588
1.34419	151531.90267425517
1.34705	85536.24687235245
1.34991	92051.2095673844
1.35277	82262.15352264814
1.35563	32837.919126530105
1.35849	23672.576007548472
1.36135	36319.14072341042
1.3642	81137.47809484217
1.36706	62282.616238133276
1.36991	64075.028527832896
1.37277	68511.93812073373
1.37562	129785.2160142388
1.37847	120219.35109679839
1.38132	61742.95063791335
1.38417	24833.408795528634
1.38701	14697.41399319019
1.38986	65545.21525345967
1.39271	105353.66642279357
1.39555	41725.092848449865
1.39839	51820.586709647585
1.40123	78229.26650103026
1.40407	99093.34888452037
1.40691	85045.51401527417
1.40974	53637.387247830215
1.41258	88797.4660511893
1.41541	133513.80683709498
1.41824	66729.52907293868
1.42107	32533.55909188233
1.4239	38084.5649408052
1.42673	147602.72241274916
1.42955	271651.11586725246
1.43237	178052.01360483162
1.43519	285955.0908374431
1.43801	291706.005791618
1.44083	262333.8704151008
1.44365	357539.3678199722
1.44646	278215.29412652727
1.44927	498569.5906508988
1.45208	849479.4553574087
1.45489	555373.6542392859
1.45769	960352.340903594
1.4605	943404.6720674068
1.4633	607203.8887877789
1.4661	978362.80129044
1.4689	840067.1955084128
1.47169	758416.2772409436
1.47449	604008.9108253713
1.47728	543164.3513081698
1.48007	555999.6360923852
1.48286	838882.5611740712
1.48564	785879.2593648612
1.48842	727222.1012978619
1.4912	891332.2917557051
1.49398	742044.7933048202
1.49676	917322.9248764717
1.49953	1373395.3642328193
1.5023	1534548.0335450654
1.50507	1780744.7477097632
1.50784	1764463.0468281799
1.51061	1639907.6081503634
1.51337	1345913.03325474
1.51613	1290439.6780467897
1.51888	1417649.8646238295
1.52164	1913931.7390106176
1.52439	2287564.368039333
1.52714	2173814.722786438
1.52989	2787112.55714335
1.53263	3250523.827083093
1.53538	3722625.414819865
1.53812	4046129.052762723
1.54086	3094273.9942703447
1.54359	3760295.9057741486
1.54632	4250862.460231646
1.54905	4115295.7526820847
1.55178	3945207.72430669
1.5545	4940859.504207168
1.55723	5855112.96245069
1.55995	6709463.635784367
1.56266	6458076.82919012
1.56538	8680980.590792557
1.56809	10054895.135287214
1.5708	9988905.307277402
1.57351	9495335.887508376
1.57621	10449686.852736386
1.57891	10242253.543451376
1.58161	10928560.441138385
1.5843	10837745.117715409
1.587	10831211.115922226
1.58969	10179869.615111087
1.59238	9185082.91429762
1.59506	9970849.658969384
1.59774	10302150.438173648
1.60042	9291146.97556211
1.6031	8124290.998612418
1.60577	7253376.90966915
1.60844	6380679.0324916635
1.61111	5888988.267055866
1.61378	5017424.574516393
1.61644	4247311.509681973
1.6191	3612775.1377488184
1.62176	3907257.337332614
1.62441	3973728.693757616
1.62707	3761868.7216940564
1.62971	3659675.652342932
1.63236	3382050.2990775895
1.635	4211845.738834363
1.63764	4850096.260412277
1.64028	4579659.077172604
1.64292	4274455.015190503
1.64555	3392035.7403425104
1.64818	2999278.3029672
1.65081	4288903.783768879
1.65343	4604151.176583895
1.65605	3111093.550773449
1.65867	3559125.59707934
1.66128	5129069.818580031
1.6639	3676534.527331938
1.66651	799671.3106043239
1.66911	349797.5776006433
1.67172	1527890.8636153233
1.67432	2688395.06354939
1.67692	3237192.544070628
1.67951	2783583.448652646
1.68211	1976965.757862798
1.6847	1408809.0616828974
1.68728	1367439.863362035
1.68987	1320474.4096948795
1.69245	927924.5023203173
1.69503	960361.2530062378
1.6976	809064.9301064683
1.70018	730387.297977974
1.70275	599165.6043682665
1.70531	661186.3355861465
1.70788	1127275.9569309263
1.71044	1686487.5994888283
1.713	2290930.14971433
1.71556	2506853.4894124423
1.71811	2506003.4404189135
1.72066	2092707.5709615997
1.72321	1355987.779140886
1.72575	1894320.4010486803
1.7283	2172018.5507958718
1.73084	2133188.437155033
1.73337	1686060.2710254393
1.73591	1541631.5589315349
1.73844	1916550.3965980576
1.74097	1979710.0238673987
1.74349	1967085.5464116095
1.74602	2162833.491967661
1.74854	2635784.381135699
1.75105	2581017.717094507
1.75357	1799038.5446670058
1.75608	938561.5668598482
1.75859	955803.6134185005
1.7611	944032.6880286768
1.7636	934197.3428188477
1.7661	936630.1560334964
1.7686	779983.1459533987
1.7711	909959.2478946772
1.77359	837802.4732755705
1.77608	561575.6062854702
1.77857	671757.2880139045
1.78105	837984.3077460233
1.78354	574083.4255812604
1.78602	400484.88256524614
1.78849	527725.6655771789
1.79097	462874.17867135856
1.79344	364203.44264897367
1.79591	472239.9444816298
1.79837	697882.7560540695
1.80084	416753.9226996745
1.8033	263864.77963261865
1.80576	286918.06777635135
1.80821	303066.4822722197
1.81067	306279.1807395129
1.81312	394499.073877357
1.81557	412753.56720035884
1.81801	279068.4795764519
1.82046	221136.87607827256
1.8229	324578.54927832785
1.82533	298868.46762122744
1.82777	167768.0270441914
1.8302	160826.0347217524
1.83263	188469.46510589158
1.83506	166210.03978421143
1.83749	139034.62912688413
1.83991	168734.11001228442
1.84233	275175.003466817
1.84475	451678.2961880221
1.84716	324212.2607574668
1.84957	336753.9487308777
1.85198	493621.35771590244
1.85439	348578.1008501336
1.8568	178522.59047501866
1.8592	106100.86811288516
1.8616	133903.25172511683
1.864	156869.6290394059
1.86639	121130.87660609452
1.86878	74028.981966575
1.87118	101698.42785489891
1.87356	138617.83492397386
1.87595	226270.71686064955
1.87833	518774.0803677699
1.88071	665068.4302325664
1.88309	529300.2467763618
1.88547	434504.7220998734
1.88784	515881.0025404302
1.89021	529332.5227523224
1.89258	620589.3827917691
1.89494	864634.2373439197
1.89731	739910.6387376476
1.89967	418150.1870275157
1.90203	388568.5324348765
1.90439	334675.08907643147
1.90674	375959.75335428986
1.90909	373498.297148799
1.91144	165702.83309144535
1.91379	139971.98436323897
1.91613	292363.7632005067
1.91848	341065.8155589843
1.92082	220116.28711380577
1.92315	178780.04225510173
1.92549	201192.5202982338
1.92782	198979.78159219772
1.93015	152476.72421827854
1.93248	113803.21378122455
1.93481	117691.6441573275
1.93713	114476.18684664475
1.93945	116931.03521245303
1.94177	208291.20725731287
1.94409	233651.2017197183
1.94641	185177.1921826408
1.94872	152835.73763680222
1.95103	189480.71739944466
1.95334	219345.462039419
1.95564	209866.59329503973
1.95795	237142.0650869669
1.96025	212108.1540983849
1.96255	187750.1643376992
1.96484	297924.0920662261
1.96714	410392.935984639
1.96943	391053.27957183076
1.97172	371296.9806318919
1.97401	364605.0626740671
1.97629	398283.3575888004
1.97858	440178.3299938854
1.98086	345710.3834177519
1.98314	260634.86903348114
1.98541	396483.99048875546
1.98769	571395.5513368311
1.98996	504629.61581768416
1.99223	433686.3789465529
1.9945	589976.3396702905
1.99677	746525.3557009879
1.99903	780334.9692887571
2.00129	766600.8627159527
2.00355	717214.5154252594
2.00581	740600.8263228767
2.00806	828925.0095780616
2.01031	857979.21757591
2.01256	949356.9150446773
2.01481	967468.8675710984
2.01706	831427.4806903335
2.0193	793859.2800454554
2.02154	945933.1931282647
2.02378	1098644.938939753
2.02602	1031177.6036401222
2.02825	850058.9612717459
2.03049	882954.6263455441
2.03272	1112457.3992318634
2.03494	1258688.212599893
2.03717	1220811.691278171
2.03939	1198456.1289429099
2.04162	1438868.9744164809
2.04384	1685992.1886155854
2.04605	1779998.3065208704
2.04827	1714685.6508156075
2.05048	1690675.3506218914
2.05269	1757599.156669157
2.0549	1750139.5941451562
2.05711	1747942.1312875317
2.05931	1769862.1051155291
2.06151	1927484.7683123082
2.06371	2102263.8945158026
2.06591	2110238.2815837315
2.06811	2068396.2866644198
2.0703	2173837.2942454126
2.07249	2350348.6607561875
2.07468	2432702.186262742
2.07686	2480491.6335053192
2.07905	2483267.385348778
2.08123	2409099.0918486556
2.08341	2401520.3096861187
2.08559	2447539.32903042
2.08776	2486487.3987469412
2.08994	2521033.4417533404
2.09211	2469991.4961678484
2.09428	2407769.51325171
2.09645	2427154.264349949
2.09861	2420742.351368175
2.10077	2354555.1274806773
2.10293	2366245.1261485405
2.10509	2460969.8425509995
2.10725	2491631.7823072863
2.1094	2385016.5913799815
2.11155	2220031.21303883
2.1137	2177291.8760113386
2.11585	2221101.8367023286
2.11799	2258616.261577143
2.12013	2297579.049561702
2.12227	2274407.4355191626
2.12441	2249171.8771036
2.12655	2233252.5808169246
2.12868	2175209.9926395146
2.13081	2118245.096368517
2.13294	2060576.6043147952
2.13507	1942153.259223126
2.13719	1876822.8254296002
2.13931	1966834.0856201404
2.14143	2002335.9242374727
2.14355	1862926.0365540003
2.14567	1668800.3470162337
2.14778	1488792.6730717956
2.14989	1400082.8776978303
2.152	1401046.9714224266
2.1541	1359150.500528266
2.15621	1288767.6001597494
2.15831	1200727.731891344
2.16041	987120.4041565788
2.16251	814484.4359560076
2.1646	850640.3159501669
2.1667	962054.1407082485
2.16879	1053520.1972825776
2.17087	1132907.5911648406
2.17296	1134693.8233798482
2.17504	1108711.2051565878
2.17713	1102080.166555531
2.1792	997518.077475767
2.18128	805561.1992446937
2.18336	694347.4527129239
2.18543	750070.0509577651
2.1875	789331.8201408507
2.18957	689293.7684296551
2.19163	577698.4434034127
2.1937	517599.3982276246
2.19576	443954.66437839763
2.19782	315335.6457280118
2.19987	178851.2071397094
2.20193	119562.42072991533
2.20398	129439.44601450762
2.20603	152851.2164418202
2.20808	162417.93273043566
2.21012	150480.70409709626
2.21217	141420.89365827403
2.21421	180407.12180520204
2.21625	229922.15191513053
2.21828	235674.30618914854
2.22032	215209.69119933704
2.22235	219176.19372911443
2.22438	239958.0426368808
2.22641	206859.48760587952
2.22843	141734.6657244161
2.23046	101293.51088700855
2.23248	93119.13139718308
2.2345	94655.3369197229
2.23651	85209.78586384609
2.23853	82038.32845719118
2.24054	99828.95168541683
2.24255	120014.33909360654
2.24456	125765.80681264553
2.24657	111622.37627463242
2.24857	90284.78928944058
2.25057	75472.9297016149
2.25257	61374.85316480456
2.25457	46895.032372335554
2.25656	43937.095155175346
2.25856	59593.930869317075
2.26055	74932.647399198
2.26254	73912.50945210576
2.26453	65651.89961634016
2.26651	66286.11956830497
2.2685	70507.57415561825
2.27048	74381.93628743314
2.27246	90633.55662824296
2.27443	100019.85393525571
2.27641	98539.89170789279
2.27838	102748.95888401943
2.28036	102526.66948929554
2.28233	85594.28768781407
2.28429	70017.89859276169
2.28626	60086.43624302957
2.28823	52232.60906950613
2.29019	45675.802266555154
2.29215	41170.236130385754
2.29411	42800.51509215844
2.29607	49707.90016823599
2.29802	58126.52140941506
2.29998	68221.08040287119
2.30193	89248.56940165542
2.30388	114853.621640587
2.30583	135073.47021795364
2.30778	162838.4996285258
2.30972	218213.07361577867
2.31167	268717.72793762165
2.31361	244851.95911421467
2.31555	155484.89388138303
2.31749	67174.2822381094
2.31943	35872.409236502644
2.32137	35181.03018006443
2.32331	38121.25580207987
2.32524	34523.81391391041
2.32718	27417.138227344003
2.32911	22475.87250144316
2.33104	21882.375823685885
2.33297	29426.98992652441
2.3349	45612.55785219856
2.33683	62950.29149909943
2.33876	69255.4230054998
2.34068	66257.49740680156
2.34261	62063.83792133863
2.34453	61230.75113333591
2.34646	67587.72072839436
2.34838	80159.21773696275
2.3503	85282.0743772023
2.35223	87018.84096884793
2.35415	84263.77751551819
2.35607	82814.99247736632
2.35799	106051.58479873753
2.35991	138375.0180330833
2.36183	155144.2282215912
2.36375	157968.0446942039
2.36566	158927.72989847205
2.36758	133016.51453058512
2.3695	94059.93789759836
2.37142	69515.44987635664
2.37334	69225.74175067298
2.37526	74108.99801453773
2.37718	75211.70657862253
2.3791	78894.65957655697
2.38101	85209.74181844038
2.38293	91139.9449451221
2.38485	93805.04322492219
2.38677	107892.273247715
2.3887	132839.84643403158
2.39062	151784.8901446122
2.39254	159453.73818608792
2.39446	164059.30926435444
2.39639	167352.43704264122
2.39831	169085.40968837467
2.40024	195035.91817848742
2.40216	223067.45963619655
2.40409	233245.8899767022
2.40602	200950.36726591646
2.40795	171433.87679861844
2.40989	192048.91743106098
2.41182	252506.5096947513
2.41376	281301.62115911226
2.4157	274148.2257942385
2.41764	263011.63385818544
2.41958	268576.3689505901
2.42152	273326.8201735368
2.42347	263957.8371364794
2.42542	247974.3980276009
2.42737	257194.0777080314
2.42932	286605.42843234213
