#wavelength	surface flux
0.676892	175161.73824354942
0.678297	185263.31194426006
0.679702	194832.54819525318
0.681109	203927.2784761074
0.682517	212336.82798202932
0.683926	220301.8583628198
0.685337	227540.75244559042
0.686749	233870.02671081317
0.688164	239249.1701053159
0.689581	243483.9139765706
0.691	245346.29227123503
0.692422	244927.61926856608
0.693847	246346.95032887594
0.695274	248510.701886154
0.696705	248733.27109251998
0.698139	247514.12216556995
0.699576	244077.79711328447
0.701017	239882.58607199555
0.702461	234171.57071359493
0.70391	229042.14247037662
0.705362	222046.15347874103
0.706819	214766.7407102178
0.70828	206936.1828932808
0.709745	197604.80282168524
0.711216	188311.22019747627
0.71269	178670.21058725083
0.71417	169104.0878175941
0.715655	156491.29774732725
0.717145	143056.30106595147
0.71864	132758.1147261453
0.72014	124918.41789879891
0.721647	116448.67780366034
0.723158	109058.99464291576
0.724676	99311.85403321093
0.726199	89752.75676004088
0.727728	79608.21061221868
0.729264	74106.14476023277
0.730805	66162.5943687964
0.732353	61419.44888221591
0.733907	55077.036475084205
0.735468	47841.17762365129
0.737035	43458.96598217136
0.738609	38191.179196919686
0.74019	33531.572992832094
0.741777	29166.42479366714
0.743372	25312.87490605807
0.744973	21750.020027503397
0.746582	18535.94066853039
0.748197	15695.241091287213
0.74982	13312.190328912635
0.751451	11210.616118678749
0.753088	9415.655535079206
0.754734	7894.601822051015
0.756386	6601.7374359490495
0.758047	5483.861112588471
0.759715	4491.436449075026
0.76139	3560.3321189298244
0.763074	2583.2920466224964
0.764765	1397.1667223921736
0.766464	450.89263793981144
0.768172	937.8210291861215
0.769887	668.65659573838
0.77161	2088.349072422034
0.773341	3807.403186418339
0.775081	5350.971764117369
0.776829	7010.799896833084
0.778585	8164.46132002723
0.780349	8313.942209897139
0.782121	13842.071289767375
0.783902	17759.063119882332
0.785691	22201.356053588584
0.787489	27618.208379078205
0.789295	34038.31755543274
0.79111	41385.121492469436
0.792933	44840.89651561932
0.794764	31416.51849252488
0.796604	65502.09714104429
0.798453	86906.757343356
0.80031	104634.62400483976
0.802176	123836.94332944523
0.804051	146078.25677714034
0.805934	169782.4994370654
0.807826	196632.77479076243
0.809727	225347.73487035028
0.811636	254865.59357734004
0.813554	282503.11825564463
0.81548	329349.8922901338
0.817416	377970.1162651775
0.81936	416030.2829882917
0.821313	484630.4521307853
0.823274	536469.8719068753
0.825244	600441.3995103972
0.827223	682214.7031121773
0.829211	749593.0815958397
0.831208	816475.8248224738
0.833213	925611.8262375955
0.835227	1014010.4173792246
0.837249	1093964.530940428
0.83928	1229480.361762982
0.841321	1353014.3514960508
0.843369	1484885.0326080758
0.845427	1608371.903482867
0.847493	1779639.4112017308
0.849567	1846051.3125478711
0.851651	1280186.2964930409
0.853742	1996403.607906678
0.855843	2455042.093598988
0.857952	2681056.158974148
0.86007	2855993.1080085146
0.862196	2614364.8091137493
0.864331	2869806.0053864177
0.866474	3171531.9132470363
0.868626	3418885.424603528
0.870786	3524950.1018747324
0.872955	3744602.6352893296
0.875132	3821010.976769237
0.877317	4558254.31115672
0.879511	4856757.377637875
0.881713	4666660.676712768
0.883923	4853551.459396655
0.886142	5171470.839333362
0.888369	4980840.506857402
0.890604	5547922.687974688
0.892847	4457668.117214071
0.895099	3792815.742770974
0.897358	6125643.880069938
0.899626	7107615.231487393
0.901901	8266370.651995811
0.904185	9434613.674454624
0.906476	9669642.41219777
0.908776	8965348.815823352
0.911083	10027634.18817488
0.913398	10106030.761425974
0.915721	11301847.62175928
0.918051	11453714.962585304
0.92039	12986354.782782681
0.922736	13229547.21212
0.925089	11952768.701350145
0.927451	8339467.46399836
0.929819	5641864.620819948
0.932195	5051650.916499832
0.934579	5937561.992622277
0.93697	11124573.25412187
0.939369	13075451.68394929
0.941774	12799854.62369128
0.944187	10711079.585598283
0.946607	12877482.925514666
0.949035	13617223.708742684
0.951469	10289691.713571608
0.953911	11710766.43009692
0.956359	9299321.290652959
0.958814	13712525.675638568
0.961277	9202025.481748005
0.963746	10651494.87970499
0.966222	14464894.634064035
0.968705	17192977.625228062
0.971194	19155441.928722903
0.97369	17388588.02431134
0.976193	22015936.90374689
0.978702	21714738.24813642
0.981217	22660240.56646862
0.983739	20712425.654565524
0.986268	25083937.27698162
0.988802	25952761.71130627
0.991343	25002713.880331226
0.99389	27973282.130957074
0.996444	28342721.59464854
0.999003	22044456.631016564
1.00157	22875537.74989613
1.00414	26181510.750913717
1.00672	27580784.967271347
1.0093	29185559.70016195
1.01189	31016084.144810583
1.01448	35133506.43289278
1.01708	36784852.13048412
1.01969	40598345.03568332
1.0223	42002664.51714871
1.02492	43184982.275543556
1.02754	44196254.66283179
1.03017	48543685.80495527
1.0328	49642988.85370093
1.03544	50743591.49741659
1.03808	57100252.47869423
1.04073	56867918.06281299
1.04339	58134344.71665978
1.04604	58245361.41945002
1.04871	59397905.83149592
1.05138	61161981.18989912
1.05405	64368667.83468854
1.05673	64176042.16153057
1.05941	68347533.6816209
1.0621	67946653.74533996
1.06479	70795082.38784316
1.06749	72130005.56418471
1.07019	75307771.11778855
1.07289	75435358.099031
1.0756	77351717.47490785
1.07832	77998019.37738863
1.08104	78360912.29320396
1.08376	80609403.33014306
1.08649	73157390.71113074
1.08922	64220237.528452225
1.09195	56153259.81999481
1.09469	47526425.92415326
1.09743	38108283.99749214
1.10018	29342755.036518294
1.10293	21418441.905412566
1.10568	14943255.168100744
1.10844	17242751.534955714
1.1112	11547293.391954316
1.11396	9629185.266494993
1.11673	8128316.248527718
1.1195	11157006.694484232
1.12228	8627419.557336546
1.12505	13788756.152680404
1.12783	15736810.046906158
1.13062	14763544.856105454
1.13341	5488564.185272399
1.1362	7442350.3451758325
1.13899	13809368.109297208
1.14178	18182072.657967612
1.14458	12256652.723291282
1.14738	12449694.130859213
1.15019	20863825.35100815
1.153	14294749.948241074
1.1558	11673300.148846064
1.15862	17130926.932840317
1.16143	10099783.881425839
1.16425	8583578.454597153
1.16707	9829295.556088015
1.16989	13013445.287873106
1.17271	18756604.52824057
1.17554	16487075.73433117
1.17837	13328891.779090384
1.1812	27404547.64662322
1.18403	29207157.90888999
1.18686	29250559.44642383
1.1897	34332136.571493044
1.19253	38417974.83524564
1.19537	44349043.89739171
1.19822	47652994.77701942
1.20106	52594971.21039229
1.2039	55453507.30921028
1.20675	62187025.620800756
1.2096	66146056.06968291
1.21245	68278538.22844358
1.2153	73041000.28418955
1.21815	73893953.68795091
1.221	79665041.59586075
1.22385	83751909.16820642
1.22671	86930685.17118149
1.22957	92732613.37261051
1.23242	94506927.08127835
1.23528	94140753.44411635
1.23814	94561569.81319882
1.241	85985181.05356157
1.24387	72959762.54026678
1.24673	93180303.46029487
1.24959	80019131.12349972
1.25245	55708919.88914002
1.25532	90072747.56148869
1.25818	106759629.61417156
1.26105	113928914.82898481
1.26392	108290383.35674283
1.26678	112904711.45744061
1.26965	107458546.49814107
1.27252	113123854.77561884
1.27538	114515769.8933976
1.27825	112366503.87325306
1.28112	109069898.00197077
1.28399	89540407.00707443
1.28686	90936653.37729341
1.28973	89665064.89217153
1.2926	87459650.57850288
1.29546	75215107.98130491
1.29833	70453360.5109198
1.3012	80051663.06408797
1.30407	83998088.08210446
1.30694	71654526.82962748
1.30981	76139675.79489554
1.31267	74007106.16355611
1.31554	60717915.29616072
1.31841	54555301.27632947
1.32128	65186068.935540125
1.32414	43510217.3968491
1.32701	28602669.424927287
1.32987	18414020.318600047
1.33274	10043897.13410745
1.3356	7427573.683328071
1.33847	1551168.3739077451
1.34133	1065550.5004906566
1.34419	1529570.5006195984
1.34705	1085845.408586578
1.34991	1288451.095255518
1.35277	1375917.4498089324
1.35563	512924.26845308964
1.35849	457655.03170746675
1.36135	684177.8140128688
1.3642	1253212.43835875
1.36706	1154640.2695447407
1.36991	1100446.1265069593
1.37277	1151504.3855312949
1.37562	1306692.0535789253
1.37847	1146088.633981723
1.38132	1011409.8746860457
1.38417	486702.0369622937
1.38701	195750.89923749788
1.38986	884328.5062173408
1.39271	1276491.8238634074
1.39555	624313.8799575649
1.39839	935035.4446332095
1.40123	1272540.7210253584
1.40407	1393066.5088009082
1.40691	1120183.8368261156
1.40974	771307.530876666
1.41258	1132304.1211360106
1.41541	1439043.3107882421
1.41824	702230.4440263447
1.42107	432635.0043526813
1.4239	453067.48688630544
1.42673	1534730.3506113286
1.42955	2272956.9447329612
1.43237	1504153.8227886448
1.43519	2268199.5037810802
1.43801	2498129.9321861085
1.44083	2266153.1039315243
1.44365	2863878.012268882
1.44646	2357510.531480351
1.44927	3544973.9172556335
1.45208	5486164.411484678
1.45489	3684368.21400314
1.45769	6034669.711209799
1.4605	5873463.049086542
1.4633	3609567.9880842613
1.4661	6340024.984813662
1.4689	5907566.233046961
1.47169	5982586.37018488
1.47449	5401366.109035567
1.47728	5484056.316812262
1.48007	5484213.198601243
1.48286	6821064.423811893
1.48564	6600110.68216181
1.48842	6727243.592268331
1.4912	7624551.0257657515
1.49398	6827636.624138081
1.49676	8656877.069301508
1.49953	9969618.573714733
1.5023	12097881.788402343
1.50507	14139937.60909852
1.50784	12886384.052833166
1.51061	14687678.099854952
1.51337	14616622.200799221
1.51613	12399897.921874307
1.51888	11814457.794064837
1.52164	14823688.60484105
1.52439	17846626.210036654
1.52714	16079829.092305267
1.52989	17936273.154690675
1.53263	21458044.409170456
1.53538	24873002.724431477
1.53812	24291608.015363663
1.54086	20684248.980319057
1.54359	21156203.823078252
1.54632	26539316.266687103
1.54905	26297859.84425915
1.55178	25404556.709174644
1.5545	28038864.55671763
1.55723	29988354.145589862
1.55995	33120187.793350343
1.56266	31636886.61070911
1.56538	36638636.960525945
1.56809	42193361.1800812
1.5708	40853047.52610731
1.57351	40058677.316565834
1.57621	41273134.85027272
1.57891	41080286.26040131
1.58161	43172913.899805576
1.5843	42908684.09881832
1.587	42624239.069691345
1.58969	40471888.08079168
1.59238	37924967.08640314
1.59506	40651885.609252065
1.59774	41997912.60602758
1.60042	39058824.9025728
1.6031	35596944.99036059
1.60577	32426537.917133603
1.60844	29843371.37528228
1.61111	30233331.266299516
1.61378	27768449.667424355
1.61644	25006138.251260575
1.6191	22327475.49327082
1.62176	24741826.721537825
1.62441	24687925.79960642
1.62707	24667463.650917504
1.62971	23324290.688005447
1.63236	24140989.816376958
1.635	27740132.835554067
1.63764	30557887.894999646
1.64028	26221365.833023198
1.64292	26650805.990657423
1.64555	22503058.539606515
1.64818	22399481.111212313
1.65081	27878346.074992865
1.65343	27248517.238152124
1.65605	20769865.64287397
1.65867	21935943.643268384
1.66128	29408646.842678767
1.6639	23632851.97915665
1.66651	6744010.334341118
1.66911	3215184.9976668265
1.67172	10778632.212215696
1.67432	17860730.96888197
1.67692	21523780.399052534
1.67951	19905236.434005324
1.68211	16145039.659467295
1.6847	11824323.107886758
1.68728	11973391.362975609
1.68987	11728961.34120854
1.69245	9346122.769598637
1.69503	9042874.530950267
1.6976	8292802.137270469
1.70018	8326781.333047785
1.70275	6826925.009617746
1.70531	6794235.50467581
1.70788	9731511.665867195
1.71044	12397747.262898356
1.713	14860287.596266577
1.71556	15621541.94873641
1.71811	15487763.879068172
1.72066	13232983.71421289
1.72321	8886574.212497212
1.72575	11462706.242255416
1.7283	13661093.157411663
1.73084	13235115.782551894
1.73337	10303208.91870055
1.73591	9447761.917789876
1.73844	10705252.265056817
1.74097	10232853.838919656
1.74349	9522724.180034203
1.74602	10375383.024578938
1.74854	13068959.119849158
1.75105	12799541.467627097
1.75357	9033401.518606935
1.75608	5590532.027435796
1.75859	6006155.964443183
1.7611	6028858.01881689
1.7636	6159684.212127432
1.7661	5887972.53559299
1.7686	4782101.165756005
1.7711	5467596.601269435
1.77359	5201722.698753751
1.77608	3638390.007031251
1.77857	4092596.309597852
1.78105	4840033.605448344
1.78354	3451829.5796479373
1.78602	2751066.1768821636
1.78849	3595804.002416499
1.79097	3252702.1966760335
1.79344	2737901.1083517345
1.79591	3363209.3175170436
1.79837	4673712.099812714
1.80084	3033514.9539404274
1.8033	2358228.6524322033
1.80576	2469838.467201057
1.80821	2507528.0748355333
1.81067	2578344.5663200845
1.81312	3272319.5732492255
1.81557	3488393.042426868
1.81801	2377883.626639689
1.82046	1960835.701076113
1.8229	2557242.578913254
1.82533	2297079.304370077
1.82777	1723505.3395014391
1.8302	1840345.32089018
1.83263	1918262.5545174892
1.83506	1789606.4951191843
1.83749	1743268.3629865753
1.83991	1933429.7081610137
1.84233	2405719.124349017
1.84475	3160430.7635419094
1.84716	2502544.651162009
1.84957	2763193.989558488
1.85198	3580065.1361698206
1.85439	2641274.2150496463
1.8568	1552861.6348110135
1.8592	1065107.4865899326
1.8616	1224720.8556598409
1.864	1358492.2374732061
1.86639	1129934.8568972286
1.86878	873791.2051754815
1.87118	1283325.8580302296
1.87356	1542512.21615957
1.87595	1901153.294897352
1.87833	3516507.284420838
1.88071	4515958.292818386
1.88309	3803193.079328864
1.88547	3250641.8185992506
1.88784	3811940.0405491902
1.89021	4020336.9418611955
1.89258	4737755.857613408
1.89494	5893118.513009232
1.89731	5090403.050481026
1.89967	3436800.8730319226
1.90203	3400293.4242961663
1.90439	3304497.6655177376
1.90674	4202455.22984536
1.90909	4449330.364104477
1.91144	2373783.2022564216
1.91379	2005898.0214969874
1.91613	3616557.3943265616
1.91848	4207482.349739824
1.92082	2914170.8977250266
1.92315	2322264.9792596293
1.92549	2599309.7543556113
1.92782	2587431.6516372957
1.93015	2013129.5438595493
1.93248	1568254.6182992642
1.93481	1538542.3279902786
1.93713	1346510.4114925244
1.93945	1235487.6893282698
1.94177	2251672.0420474843
1.94409	2802968.4352792455
1.94641	2467147.3836411354
1.94872	2462510.60252894
1.95103	3159901.7660533194
1.95334	3101522.0108462465
1.95564	2303261.092063443
1.95795	2152233.859095641
1.96025	1884681.1731277558
1.96255	1758692.3634633692
1.96484	2665430.7094384236
1.96714	3441086.4419897576
1.96943	3423177.209361236
1.97172	3721951.1296550976
1.97401	3777751.056328246
1.97629	3755664.4038713914
1.97858	3918583.273176456
1.98086	3147973.843790253
1.98314	2499304.2870409996
1.98541	3502878.0915062027
1.98769	4737975.514201198
1.98996	4192196.3129302394
1.99223	3735255.752599867
1.9945	4818046.909451373
1.99677	5492956.775226269
1.99903	5158937.464138406
2.00129	4996558.454014637
2.00355	5092324.6927105915
2.00581	5561766.39957819
2.00806	5751065.790777996
2.01031	6142486.422489397
2.01256	7671202.644924773
2.01481	8178136.382603393
2.01706	7073155.782790694
2.0193	7035755.179949804
2.02154	8398645.988474617
2.02378	9046404.736078678
2.02602	8125135.471357517
2.02825	7326503.541827265
2.03049	7792685.038457
2.03272	9006953.30538406
2.03494	9676305.889328722
2.03717	9470653.943688799
2.03939	9346896.155724432
2.04162	10550489.160877982
2.04384	11782984.048222553
2.04605	12151678.724726781
2.04827	11604022.577313045
2.05048	11290051.471651772
2.05269	11160980.175493509
2.0549	10601908.83445791
2.05711	11276768.177512307
2.05931	11908538.120676128
2.06151	12013800.639121551
2.06371	12375776.080404319
2.06591	12375782.590434272
2.06811	12547022.995218258
2.0703	13294347.749559088
2.07249	13934128.657983879
2.07468	13875086.35784747
2.07686	13708402.758224728
2.07905	13893732.12071256
2.08123	13978171.783845788
2.08341	14017086.000830159
2.08559	14017109.253325634
2.08776	14097664.975689184
2.08994	14224285.684245165
2.09211	14040717.697991785
2.09428	14025526.391569782
2.09645	14259077.44322159
2.09861	14001353.585156929
2.10077	13391189.467801873
2.10293	13265024.204783702
2.10509	13684126.261704717
2.10725	13799456.50366671
2.1094	13083364.91776413
2.11155	11975361.065177284
2.1137	11681361.281488353
2.11585	11987788.59980969
2.11799	12325244.821153078
2.12013	12735480.803267699
2.12227	12780299.024019187
2.12441	12765940.494482834
2.12655	12683066.73181581
2.12868	12290969.06431858
2.13081	12027224.4632783
2.13294	11817060.978455026
2.13507	11150257.376698915
2.13719	10755534.260241428
2.13931	11234498.552498747
2.14143	11502026.8106084
2.14355	10875440.593917256
2.14567	9891553.508839525
2.14778	8898657.748563884
2.14989	8398842.327697517
2.152	8490340.058366772
2.1541	8426079.104195382
2.15621	8188595.010754486
2.15831	7746302.343592864
2.16041	6823612.6514429385
2.16251	6420884.680146292
2.1646	6754422.078515348
2.1667	7136557.427374113
2.16879	7561584.165466721
2.17087	7915553.806251608
2.17296	7750098.692748158
2.17504	7521729.154737042
2.17713	7529074.165946053
2.1792	7092151.795329427
2.18128	5995038.866636981
2.18336	5027892.677771451
2.18543	4994368.594509216
2.1875	5178419.289058587
2.18957	4850802.622081255
2.19163	4486093.645949694
2.1937	4260131.993700277
2.19576	3693854.2323077796
2.19782	2700743.077994177
2.19987	1727583.442568
2.20193	1276629.3580157855
2.20398	1234994.2906643657
2.20603	1271476.7077075148
2.20808	1368274.0835574418
2.21012	1462614.6847665755
2.21217	1508178.8503538948
2.21421	1727284.6943948434
2.21625	2016560.3940837833
2.21828	2130315.980525935
2.22032	2184515.8044647137
2.22235	2269645.981649851
2.22438	2255039.6500106994
2.22641	1950353.1731631637
2.22843	1690974.42457072
2.23046	1531336.2007333918
2.23248	1288335.0027889025
2.2345	1053988.129485273
2.23651	919218.9156970379
2.23853	932713.1799110489
2.24054	1092689.782302797
2.24255	1289107.5576625844
2.24456	1431985.5799031297
2.24657	1465620.4112853159
2.24857	1388288.9450529783
2.25057	1227424.8977350742
2.25257	1003305.3675145697
2.25457	803304.2676840061
2.25656	754773.5382622718
2.25856	828564.1336859472
2.26055	863305.4339957928
2.26254	782069.0526119423
2.26453	719360.954914136
2.26651	776158.2831960174
2.2685	835799.964580436
2.27048	844648.7542643097
2.27246	915430.1472759208
2.27443	943497.5144375301
2.27641	952520.2960651155
2.27838	1031236.3169445829
2.28036	1044978.7098244862
2.28233	932366.8784347775
2.28429	809144.7379714247
2.28626	700128.3646366112
2.28823	603692.9454090986
2.29019	544575.3466138017
2.29215	510506.49359912495
2.29411	518593.38372342667
2.29607	568968.8526745327
2.29802	669021.1599981129
2.29998	811246.7406691352
2.30193	1005787.274000931
2.30388	1181633.0930915098
2.30583	1267152.8833223262
2.30778	1357249.4088204915
2.30972	1594353.6134216713
2.31167	1872297.000577467
2.31361	1735566.7353382083
2.31555	1192464.244314459
2.31749	664431.9673664048
2.31943	495925.41376955016
2.32137	472894.38665952254
2.32331	439336.4733364144
2.32524	381011.53490425664
2.32718	314758.8613389823
2.32911	278861.1170020266
2.33104	295509.6290202893
2.33297	362031.3007501889
2.3349	475929.1013055165
2.33683	627544.2685036726
2.33876	733692.6510790486
2.34068	773660.2122196031
2.34261	783095.612594215
2.34453	801388.9060369591
2.34646	842325.8622984296
2.34838	879235.3896820267
2.3503	853191.5782763616
2.35223	839136.6544464655
2.35415	806449.392071727
2.35607	741432.7528794841
2.35799	827998.4300930528
2.35991	1020157.4287512592
2.36183	1167559.5711434325
2.36375	1252486.4145430026
2.36566	1347897.8980325798
2.36758	1256853.3210650552
2.3695	1019126.3724967438
2.37142	827112.3415596377
2.37334	772164.4557902813
2.37526	718480.0682828712
2.37718	645843.8685290192
2.3791	623370.3687475625
2.38101	636977.7370104747
2.38293	665429.9560094796
2.38485	723474.4988409483
2.38677	882376.1648673589
2.3887	1062288.5737062357
2.39062	1126544.2271176188
2.39254	1129419.250846492
2.39446	1184617.170079344
2.39639	1231695.5205490463
2.39831	1192885.8885312425
2.40024	1229101.3816182434
2.40216	1343708.0060443738
2.40409	1477461.9393470592
2.40602	1422570.938521579
2.40795	1312248.463452224
2.40989	1412691.310401916
2.41182	1680680.8921653533
2.41376	1789571.5512413774
2.4157	1804111.62616766
2.41764	1796106.3209195563
2.41958	1796144.635355836
2.42152	1748261.9514901636
2.42347	1697581.54206924
2.42542	1657237.5984649162
