#wavelength	surface flux
0.676892	358462.84586963645
0.678297	381514.9056433207
0.679702	403327.6815380615
0.681109	423867.3767085126
0.682517	442458.26976602053
0.683926	460609.12163436174
0.685337	476899.47519416653
0.686749	490996.9361597404
0.688164	503249.5098706846
0.689581	512081.7436565144
0.691	509216.0215501515
0.692422	514675.81028766587
0.693847	509792.0407429661
0.695274	525538.7166276503
0.696705	527888.5480476969
0.698139	528552.7081185612
0.699576	523883.13271858636
0.701017	516370.91794755775
0.702461	507435.9142513737
0.70391	498909.44012553873
0.705362	484204.320802825
0.706819	470277.2530401121
0.70828	456244.44466859504
0.709745	436914.40292232553
0.711216	418865.17584690155
0.71269	400419.7308022203
0.71417	381002.5496281916
0.715655	351830.6724722383
0.717145	324660.3050470268
0.71864	299978.55824562354
0.72014	285284.73401963763
0.721647	268730.4710537772
0.723158	257543.0813534457
0.724676	235387.87857410288
0.726199	213443.63124206028
0.727728	185869.92983540727
0.729264	179523.9347829214
0.730805	160693.15164150094
0.732353	151285.38979060933
0.733907	135913.71680039397
0.735468	116311.56636919937
0.737035	108574.03883698316
0.738609	96172.03435519437
0.74019	84680.68725706478
0.741777	73687.56591543264
0.743372	63874.679047400416
0.744973	54469.92428915028
0.746582	45775.61838624238
0.748197	37887.614210012354
0.74982	31321.92086609975
0.751451	25321.17583394025
0.753088	20187.08295860075
0.754734	15868.73917797571
0.756386	12293.019184577868
0.758047	9395.198608054698
0.759715	7072.787379022278
0.76139	5187.923224709978
0.763074	3564.891473118903
0.764765	1862.7176974487802
0.766464	539.2287450489671
0.768172	1210.9630776951508
0.769887	827.51925780271
0.77161	2815.0897738000326
0.773341	5352.348322772776
0.775081	8054.147575730513
0.776829	11421.718144884937
0.778585	14103.129857656117
0.780349	14978.075707031187
0.782121	27899.999138693314
0.783902	37879.55051013263
0.785691	49307.340740791085
0.787489	63308.251161024426
0.789295	79690.33655287957
0.79111	97928.23563827887
0.792933	106139.971050621
0.794764	71415.17119755383
0.796604	155144.07968336897
0.798453	205600.31779110437
0.80031	246638.0406744749
0.802176	289985.4874183679
0.804051	339727.98468971817
0.805934	391217.03447414906
0.807826	448806.9269075077
0.809727	509654.7913644625
0.811636	571711.5531477004
0.813554	630719.2562555996
0.81548	720894.7022911902
0.817416	812392.714376565
0.81936	828556.7694871796
0.821313	1024940.9932353272
0.823274	1148865.1407034493
0.825244	1252014.5164806382
0.827223	1419340.4900456546
0.829211	1523859.2644881227
0.831208	1641452.0814854254
0.833213	1884754.1618394856
0.835227	2030773.4827925763
0.837249	2096236.2935154242
0.83928	2389019.436167718
0.841321	2646396.40409331
0.843369	2861442.735962283
0.845427	3060693.9141261447
0.847493	3402013.3451890843
0.849567	3392398.1023000884
0.851651	2347534.0797422547
0.853742	3713322.002004128
0.855843	4536265.720850539
0.857952	4924592.338683356
0.86007	5179536.631515647
0.862196	4034735.9510561987
0.864331	4376292.021569212
0.866474	4956352.161280473
0.868626	5200663.947102669
0.870786	5132968.124718471
0.872955	5449922.9115192555
0.875132	5168839.847309329
0.877317	7041041.108245718
0.879511	7414966.300999799
0.881713	6730456.257720284
0.883923	7123496.134461591
0.886142	7991352.40940392
0.888369	7459639.083549112
0.890604	8626108.694494324
0.892847	6831014.545723956
0.895099	5914459.019437746
0.897358	9469631.451443661
0.899626	11058784.668055937
0.901901	12539318.636340573
0.904185	14966055.092777692
0.906476	14466312.72113783
0.908776	12393247.16053022
0.911083	14448827.20875205
0.913398	15081212.425944572
0.915721	17617548.933645077
0.918051	18020871.189193927
0.92039	20489366.901583314
0.922736	19785177.185106833
0.925089	17955132.349137697
0.927451	13791940.658475652
0.929819	9478919.095527569
0.932195	7486638.4254733175
0.934579	7707297.185004773
0.93697	17057236.95066293
0.939369	19578235.177064072
0.941774	17641323.96050514
0.944187	15364886.902378634
0.946607	20172879.098244406
0.949035	22018935.81769731
0.951469	14217980.82627703
0.953911	17428540.606101844
0.956359	14347943.110888261
0.958814	20363999.878233805
0.961277	14182594.466892129
0.963746	14409284.114024553
0.966222	20626482.635597516
0.968705	22812440.21627644
0.971194	25790457.688560758
0.97369	23453073.123219885
0.976193	30356022.722793262
0.978702	28284271.801758006
0.981217	30057943.90829142
0.983739	24626667.323411632
0.986268	31654860.012443777
0.988802	33919141.94900442
0.991343	28474982.228234813
0.99389	34179405.73082731
0.996444	35495094.386082895
0.999003	21296555.80953024
1.00157	22269744.470878124
1.00414	25811430.96737312
1.00672	27494515.264003795
1.0093	27491337.418663047
1.01189	29611451.42272938
1.01448	36590840.52521994
1.01708	37927581.70750747
1.01969	45513060.06264138
1.0223	45875547.17998097
1.02492	46306563.11532009
1.02754	46718973.322383985
1.03017	56354727.15209071
1.0328	55894432.16544061
1.03544	57246610.89837639
1.03808	69731819.07233213
1.04073	67412992.24548207
1.04339	68563725.2662574
1.04604	64747378.301563084
1.04871	66254907.92699378
1.05138	68396552.47641748
1.05405	74764188.0733688
1.05673	71065101.6425324
1.05941	81247246.76605809
1.0621	77467410.50225797
1.06479	83364026.48954876
1.06749	86207238.9152214
1.07019	94753117.3079164
1.07289	91306465.17329773
1.0756	93945477.3352982
1.07832	93736974.90575273
1.08104	95265957.35691793
1.08376	96874158.3639835
1.08649	86851513.35898136
1.08922	72366995.44656685
1.09195	61151187.96773028
1.09469	54756759.66808302
1.09743	42520108.80160579
1.10018	37789578.628142454
1.10293	29635110.188448977
1.10568	21496068.7246654
1.10844	26679367.660346366
1.1112	20071626.32906554
1.11396	16876307.809506696
1.11673	12111499.56943353
1.1195	17987372.82213645
1.12228	13791634.205998821
1.12505	17901381.237611007
1.12783	24240400.762148127
1.13062	22453841.032947987
1.13341	7871954.425104078
1.1362	10455509.1397726
1.13899	15002588.587859374
1.14178	23910454.390364803
1.14458	18280887.75163799
1.14738	18607159.95741561
1.15019	30304137.36474753
1.153	21838758.60389848
1.1558	15951096.284409655
1.15862	25837089.9204684
1.16143	14869967.634565532
1.16425	9888636.88864896
1.16707	14706131.463363616
1.16989	15886911.308861952
1.17271	24413183.615801707
1.17554	21077451.07712944
1.17837	13983489.052979728
1.1812	32884289.170615263
1.18403	36796551.09817983
1.18686	33212514.005300816
1.1897	38041685.927259825
1.19253	43565358.881571904
1.19537	51077308.3828042
1.19822	47274218.6991476
1.20106	51452606.840779476
1.2039	56919075.33498038
1.20675	65732994.10095128
1.2096	75749481.73304032
1.21245	78866623.6591584
1.2153	81407098.3708894
1.21815	82308966.09703432
1.221	87409266.68068483
1.22385	94849597.47700644
1.22671	98376448.98579668
1.22957	106482680.91792727
1.23242	109471698.64069912
1.23528	103484581.6605381
1.23814	108276902.17094135
1.241	104978823.50739929
1.24387	85858932.85247786
1.24673	116264479.72826359
1.24959	100352983.83944069
1.25245	64009877.874064036
1.25532	114420904.20528083
1.25818	129767091.0414915
1.26105	139154484.19073302
1.26392	113441552.98945644
1.26678	128135175.53418198
1.26965	111870344.66511774
1.27252	132863526.59297644
1.27538	138098516.18900108
1.27825	129096412.96836266
1.28112	131213982.33242758
1.28399	101536044.57297066
1.28686	106798834.69586715
1.28973	102251021.89182927
1.2926	106537614.97867876
1.29546	89017167.5264737
1.29833	79076934.30059832
1.3012	102128550.69959831
1.30407	106050923.86947258
1.30694	83373996.76313168
1.30981	87766737.39471278
1.31267	92343163.03539065
1.31554	71693044.60785344
1.31841	65640158.51295436
1.32128	77761872.03361368
1.32414	51961651.2647911
1.32701	30129046.566449415
1.32987	21260115.784439106
1.33274	14882475.996263623
1.3356	10885772.221626824
1.33847	2729426.608415944
1.34133	2301472.7811191306
1.34419	2942652.663680988
1.34705	2270342.9844601746
1.34991	3235134.004565146
1.35277	3560606.2587652653
1.35563	1359554.5089068478
1.35849	1371141.8655023354
1.36135	1925511.462722947
1.3642	3101435.071160756
1.36706	2604404.344316111
1.36991	2218468.171153717
1.37277	2609451.8191761943
1.37562	1709593.661155557
1.37847	1296734.1077231094
1.38132	2658696.0249169506
1.38417	1173540.518012755
1.38701	292889.5262130593
1.38986	1710773.4818475905
1.39271	2473016.320380465
1.39555	1388466.941525274
1.39839	2286863.0757386135
1.40123	3382390.3871545247
1.40407	3100189.8887615693
1.40691	2151485.3209541114
1.40974	1525335.365941344
1.41258	2707096.8686082577
1.41541	2900873.0059101786
1.41824	1265447.988207227
1.42107	660509.7789861886
1.4239	767746.8286472677
1.42673	3102619.1004190324
1.42955	4214385.319909509
1.43237	2495277.4704010454
1.43519	4272848.890910611
1.43801	4837361.445053613
1.44083	3793508.6855552876
1.44365	4322144.267457705
1.44646	3733445.213991265
1.44927	5140552.566874427
1.45208	8276555.34243279
1.45489	6576323.454088843
1.45769	10197090.859643493
1.4605	8935454.86601961
1.4633	5259273.623548731
1.4661	8535325.415493423
1.4689	8136806.593982387
1.47169	7444049.31532949
1.47449	7709370.644307649
1.47728	8233276.017317514
1.48007	8161815.113776695
1.48286	9197942.71842272
1.48564	8801891.763840077
1.48842	9708161.921434272
1.4912	11761753.581542743
1.49398	8604777.329187755
1.49676	11823476.124299591
1.49953	12967505.088933017
1.5023	18621002.464547176
1.50507	21720974.80490294
1.50784	17485066.184279412
1.51061	20012922.58685904
1.51337	21794880.864641786
1.51613	16125133.185898917
1.51888	13506262.005853336
1.52164	17488773.378583636
1.52439	23021857.32748607
1.52714	18196331.558604453
1.52989	19808130.77093578
1.53263	25089122.72239932
1.53538	30108248.85622022
1.53812	25726437.013992563
1.54086	21762191.072262418
1.54359	19342582.319529757
1.54632	27409843.754379824
1.54905	29617142.183582116
1.55178	28767087.44091874
1.5545	28176000.708070878
1.55723	32041550.049197122
1.55995	36016491.82756748
1.56266	33243387.458583325
1.56538	40281913.91101027
1.56809	48433141.05037724
1.5708	44346377.85862183
1.57351	45538332.41691445
1.57621	44510779.202784985
1.57891	43160177.23021114
1.58161	49498011.47729181
1.5843	48432682.75880672
1.587	48983843.08945901
1.58969	46193097.91616651
1.59238	41378206.08809171
1.59506	47982922.85702354
1.59774	51022897.6861073
1.60042	45239701.11989087
1.6031	41185302.35313433
1.60577	38071748.37088301
1.60844	33514286.803231318
1.61111	36766216.60120608
1.61378	35232280.4513822
1.61644	33406970.306718025
1.6191	30203998.49441639
1.62176	34005558.26573612
1.62441	34792072.049686395
1.62707	36959498.16703804
1.62971	35860669.33835188
1.63236	36976494.23563971
1.635	44695852.401427
1.63764	48409613.85629881
1.64028	35613927.655394666
1.64292	34914958.125024885
1.64555	29610468.403773926
1.64818	28938686.300768513
1.65081	39333394.93298913
1.65343	40141052.30658147
1.65605	30140960.192685414
1.65867	28979392.954604212
1.66128	40951565.60023378
1.6639	32797450.93310888
1.66651	9459069.848940758
1.66911	3535091.5183069664
1.67172	12279310.393150605
1.67432	21654892.303757373
1.67692	28644245.056118157
1.67951	25358142.8438906
1.68211	21141314.76449057
1.6847	14480046.150835201
1.68728	14097318.765597934
1.68987	14043230.439261606
1.69245	11738194.688705001
1.69503	10508200.355258398
1.6976	10683294.680781782
1.70018	11690792.78577536
1.70275	8282305.989788418
1.70531	7859001.924786667
1.70788	11933202.060724657
1.71044	16616661.32952842
1.713	21332825.817921594
1.71556	22629622.31898296
1.71811	22521058.50699074
1.72066	17108619.831275467
1.72321	10051062.620302675
1.72575	13999413.260514274
1.7283	18728408.30249624
1.73084	19060464.69043593
1.73337	12752633.473968294
1.73591	10818792.969132574
1.73844	13034710.497222096
1.74097	11876857.840909855
1.74349	11512129.469977202
1.74602	14357470.04493856
1.74854	18438799.431525033
1.75105	18497465.8364039
1.75357	13450299.096421957
1.75608	8396910.461924803
1.75859	7398696.856296529
1.7611	7140992.010693589
1.7636	8743933.871283004
1.7661	8736658.028971348
1.7686	7584846.243478031
1.7711	9149099.156823747
1.77359	7188381.7789548645
1.77608	4842006.78000828
1.77857	7460663.963299415
1.78105	9451316.108590161
1.78354	6700876.508559129
1.78602	5575166.796241413
1.78849	6763779.146238976
1.79097	5960691.76437924
1.79344	5338985.055499498
1.79591	6407738.578823799
1.79837	9034425.514968896
1.80084	6257837.398220218
1.8033	5356920.624474224
1.80576	5454977.6101959925
1.80821	5649768.5883011455
1.81067	5688396.828561969
1.81312	6671720.532151689
1.81557	7100631.447495039
1.81801	4256857.507823402
1.82046	3703645.748187051
1.8229	5209707.597147977
1.82533	4497322.2668667585
1.82777	4000826.411817164
1.8302	4602420.9828707995
1.83263	4296589.366995277
1.83506	3716475.6680319416
1.83749	3882846.2516081356
1.83991	4497732.336836565
1.84233	5390777.432206001
1.84475	6443385.395510073
1.84716	5129227.712119267
1.84957	4978916.000865818
1.85198	5556254.622598792
1.85439	4563779.882802779
1.8568	3051463.8015571116
1.8592	2025321.520669599
1.8616	2507975.029110566
1.864	2844388.8593686605
1.86639	2311366.1453359313
1.86878	2077320.145113746
1.87118	3390682.6047810097
1.87356	3740414.6308488725
1.87595	3775295.6193288853
1.87833	6416270.618431761
1.88071	8397368.755763039
1.88309	6947077.033408295
1.88547	6178695.126854163
1.88784	7452433.557762399
1.89021	8149435.781943135
1.89258	9416673.713125931
1.89494	11377091.309595378
1.89731	9949721.741580063
1.89967	6857644.526033395
1.90203	6653048.124820781
1.90439	6912998.937180915
1.90674	8861338.57778131
1.90909	9366346.836057974
1.91144	5452558.887530659
1.91379	5047986.4658022495
1.91613	8272533.569723015
1.91848	9275221.38635098
1.92082	6863508.93879636
1.92315	5691560.313586468
1.92549	6355196.261050128
1.92782	6447346.795991434
1.93015	4918504.0471465895
1.93248	3539348.998877418
1.93481	2980699.7388213743
1.93713	2337439.140583455
1.93945	2339293.222179014
1.94177	4484038.005333752
1.94409	5930394.591238799
1.94641	5867126.0576992985
1.94872	6262166.720280565
1.95103	7895195.740984263
1.95334	7528948.88212244
1.95564	5360419.70073459
1.95795	4672385.743719076
1.96025	3773786.359622287
1.96255	3480556.1605016068
1.96484	5411848.353111696
1.96714	6767063.550819909
1.96943	6322119.828855387
1.97172	7032702.094897699
1.97401	7325012.435288641
1.97629	7010072.447138919
1.97858	7464272.853370514
1.98086	6457579.506282499
1.98314	4865900.524323069
1.98541	5914983.98643499
1.98769	8551607.38830197
1.98996	8462757.144934066
1.99223	7517649.801911906
1.9945	8711984.268433502
1.99677	9255139.239695812
1.99903	8555655.429682456
2.00129	8302211.660611776
2.00355	8866905.964797284
2.00581	9898798.165345576
2.00806	10072173.476162849
2.01031	10785204.431298558
2.01256	13987452.889677929
2.01481	15288436.43728791
2.01706	12858245.096815474
2.0193	12422836.721909268
2.02154	14587518.09491603
2.02378	14942369.073302174
2.02602	12812453.805264873
2.02825	12009437.179731386
2.03049	13340132.845289975
2.03272	15792678.254024202
2.03494	16500965.429330135
2.03717	15511789.843845477
2.03939	15299276.585847706
2.04162	17458432.430609122
2.04384	19978795.53720793
2.04605	20225815.74835005
2.04827	18724549.460420683
2.05048	18720648.49753304
2.05269	18422511.393722787
2.0549	16406689.357053572
2.05711	17772172.841414228
2.05931	19354494.82160334
2.06151	19033181.909575623
2.06371	18770228.70212862
2.06591	18141581.903546672
2.06811	19010454.085815404
2.0703	21014541.231593437
2.07249	22412521.30885995
2.07468	22401584.61267242
2.07686	21388530.57346012
2.07905	21398471.95745701
2.08123	22336841.729400326
2.08341	22694985.213729307
2.08559	22091955.964985084
2.08776	22315415.65723128
2.08994	23135448.807786774
2.09211	23130682.595798846
2.09428	23696621.24641952
2.09645	24556650.932304416
2.09861	23654021.109571263
2.10077	21903550.07138456
2.10293	21361314.088545512
2.10509	22041866.207387798
2.10725	22148401.36641754
2.1094	20113768.924610123
2.11155	17146381.06650997
2.1137	16588204.470806742
2.11585	17364653.357836314
2.11799	18356514.370671514
2.12013	19923807.720156606
2.12227	20473297.528250314
2.12441	20589618.731145535
2.12655	20383329.61228441
2.12868	19360732.558238804
2.13081	18923546.912686065
2.13294	18684561.16671891
2.13507	16992139.93866959
2.13719	15718168.06353003
2.13931	16712640.542660708
2.14143	17655438.481355865
2.14355	16823623.551079776
2.14567	15339705.330248306
2.14778	13271142.4017091
2.14989	11862414.826025814
2.152	12160995.594314484
2.1541	12414710.524805449
2.15621	12156759.999167517
2.15831	11435526.191695157
2.16041	9968072.17169466
2.16251	9515217.597327968
2.1646	9908891.008283054
2.1667	9976353.868241858
2.16879	10565077.768365834
2.17087	11529490.991331454
2.17296	11438744.01716309
2.17504	11045412.572314743
2.17713	11122155.557269527
2.1792	10550402.558077274
2.18128	8820715.40989253
2.18336	6770641.755622985
2.18543	5933255.607775701
2.1875	5888195.811655548
2.18957	5566517.961762041
2.19163	5502258.073522538
2.1937	5872675.676301794
2.19576	5290075.740321589
2.19782	3571412.567748919
2.19987	2006271.9656978317
2.20193	1397726.9062741897
2.20398	1375188.4550937994
2.20603	1360196.5877618212
2.20808	1399008.739012597
2.21012	1517813.6907991439
2.21217	1673545.745426162
2.21421	2041929.895466609
2.21625	2397842.052613721
2.21828	2480919.461158746
2.22032	2594939.75707495
2.22235	2740047.375278557
2.22438	2684056.7903582714
2.22641	2379819.2828383204
2.22843	2296519.004856132
2.23046	2159999.8660535035
2.23248	1638189.6167196736
2.2345	1177076.3085176968
2.23651	999404.7750091602
2.23853	1030049.5341086638
2.24054	1257941.7137046307
2.24255	1577936.548026036
2.24456	1853304.6077429592
2.24657	1991654.4995433844
2.24857	1959919.0632760741
2.25057	1736701.018874886
2.25257	1394357.2390389908
2.25457	1100403.9794544165
2.25656	981143.390724938
2.25856	970642.3151518673
2.26055	952864.4959623162
2.26254	822456.4356280498
2.26453	731639.6750761389
2.26651	790407.5839356731
2.2685	869533.4331667762
2.27048	894378.2752329274
2.27246	939305.7900888383
2.27443	935717.5743600983
2.27641	956509.812948274
2.27838	1054883.9325513274
2.28036	1067256.753470563
2.28233	968263.6556289891
2.28429	851949.322152056
2.28626	749391.5018456925
2.28823	657590.3448565652
2.29019	570801.9156912579
2.29215	496398.6623513451
2.29411	489367.7262947267
2.29607	554487.6009335708
2.29802	689957.6575229944
2.29998	883884.6562229884
2.30193	1133315.4250358567
2.30388	1346569.6776863183
2.30583	1450317.4871474267
2.30778	1565956.9241336442
2.30972	1783719.7814745852
2.31167	2013982.5946048198
2.31361	1849781.9195631242
2.31555	1315535.5381529927
2.31749	771301.579623738
2.31943	583614.7133780952
2.32137	522303.53901528177
2.32331	448049.4068453114
2.32524	377646.990668968
2.32718	322768.9979674879
2.32911	298220.5490191536
2.33104	317406.7647143223
2.33297	378787.5007882898
2.3349	500131.71944495477
2.33683	685306.0761497597
2.33876	811111.541431788
2.34068	851311.3189800424
2.34261	861226.5854114526
2.34453	909719.4922057623
2.34646	1006599.2766462998
2.34838	1094370.782673708
2.3503	1073509.230233434
2.35223	1033949.8655695779
2.35415	964638.1891680614
2.35607	848100.9070806227
2.35799	871339.6825188014
2.35991	1054365.4936549875
2.36183	1263276.0334293116
2.36375	1407763.0727694894
2.36566	1501237.500866842
2.36758	1436354.687532439
2.3695	1284776.5771515155
2.37142	1170551.997912623
2.37334	1092550.74180401
2.37526	919521.4531141045
2.37718	723034.393377215
2.3791	621565.3613254909
2.38101	593129.6231734352
2.38293	615250.1614037082
2.38485	731741.7038570489
2.38677	979555.025738952
2.3887	1177622.6023485924
2.39062	1162971.735041978
2.39254	1117020.7222507987
2.39446	1239466.3050296847
2.39639	1389604.739179432
2.39831	1406838.930064435
2.40024	1440209.394602843
2.40216	1581582.5772163898
2.40409	1830135.129118636
2.40602	1873304.681639512
2.40795	1737855.377989413
2.40989	1744807.6493934826
2.41182	1944397.4666170895
2.41376	2062658.7400944717
2.4157	2222651.664865062
2.41764	2308176.492980755
2.41958	2232363.125003291
2.42152	2029452.2603170294
2.42347	1942759.3527830367
2.42542	2008488.0155935155
2.42737	2377556.978768671
