#wavelength	surface flux
0.676892	1480254.0935194765
0.678297	1565304.658487895
0.679702	1645440.25186336
0.681109	1725247.9879302962
0.682517	1791751.3498750564
0.683926	1865951.1917613621
0.685337	1921547.9839317664
0.686749	1974923.4179044846
0.688164	2025661.8517299094
0.689581	2070516.2380305429
0.691	2087766.2468453024
0.692422	2102059.7609114484
0.693847	2088135.0408277868
0.695274	2141573.9164547212
0.696705	2154413.7742551933
0.698139	2145284.405710603
0.699576	2128497.6151051396
0.701017	2103260.6164260786
0.702461	2072571.8062976997
0.70391	2033099.9442566764
0.705362	1967255.5194578941
0.706819	1899418.3561310754
0.70828	1849226.7368159601
0.709745	1780592.9429152054
0.711216	1717568.4847426713
0.71269	1646847.840742006
0.71417	1574157.2043565777
0.715655	1495485.1115815744
0.717145	1408230.6297248532
0.71864	1332914.779620508
0.72014	1261695.4240580362
0.721647	1186433.5996059596
0.723158	1114972.5722833367
0.724676	1034784.8776021948
0.726199	955722.3073564194
0.727728	875079.1461336039
0.729264	809418.2743434472
0.730805	737892.8392219889
0.732353	678585.7738224437
0.733907	614404.2321754494
0.735468	548334.6071124015
0.737035	495206.17479513795
0.738609	440113.3978928055
0.74019	388972.9205181865
0.741777	340532.6415912839
0.743372	295593.6229432475
0.744973	253560.2048087557
0.746582	214617.48759956745
0.748197	179038.98084565706
0.74982	147201.97503293757
0.751451	118467.57618548324
0.753088	93149.16437986933
0.754734	71228.67086297278
0.756386	52676.36984387041
0.758047	37400.32920772019
0.759715	25315.86783078342
0.76139	16215.614917344139
0.763074	9694.859645369304
0.764765	4805.997909187994
0.766464	1546.4455320862523
0.768172	3231.9892119850315
0.769887	2278.5857900695214
0.77161	7258.486281040604
0.773341	15311.744094849793
0.775081	26497.052943905124
0.776829	42046.419307737786
0.778585	54786.92231290549
0.780349	58952.15030317227
0.782121	119898.66929297429
0.783902	165911.49436766122
0.785691	216840.93642455968
0.787489	276298.31529323943
0.789295	344338.0024253965
0.79111	418815.93743217323
0.792933	450840.0541765394
0.794764	300328.97924871556
0.796604	644343.6949244248
0.798453	841309.1055292778
0.80031	994336.8461788981
0.802176	1155258.2371322792
0.804051	1333144.1205409209
0.805934	1523987.3976080322
0.807826	1732486.1223913305
0.809727	1954799.052533786
0.811636	2192750.9175620535
0.813554	2438415.0074363514
0.81548	2746963.2963353195
0.817416	2992018.2610285264
0.81936	3006935.3832618087
0.821313	3731693.5048175976
0.823274	4158208.324214887
0.825244	4575961.54621459
0.827223	5055060.463685984
0.829211	5508365.682470876
0.831208	5988527.356268182
0.833213	6588409.676592411
0.835227	7140014.774377293
0.837249	7693094.52989071
0.83928	8406167.782821052
0.841321	9106217.74105587
0.843369	9808504.82477274
0.845427	10444872.610462332
0.847493	11230453.578797776
0.849567	11549016.102828046
0.851651	7598779.16935184
0.853742	11914266.853867998
0.855843	14763964.397295658
0.857952	15928338.068577915
0.86007	16323539.598783966
0.862196	11253010.154119803
0.864331	12614969.516138347
0.866474	14416187.24879544
0.868626	15350336.222284846
0.870786	14811513.944574004
0.872955	15393975.533037888
0.875132	14807370.31971929
0.877317	20802581.923840426
0.879511	22236068.94575025
0.881713	21564532.390047166
0.883923	24349273.469712026
0.886142	25847797.266907714
0.888369	24724059.700181182
0.890604	28947007.262366857
0.892847	23418185.65317266
0.895099	20261293.699766945
0.897358	31252493.240150068
0.899626	36328046.18745991
0.901901	40884952.61606522
0.904185	45188689.65802872
0.906476	42664677.25751933
0.908776	43912515.37282666
0.911083	45839163.37000288
0.913398	49136759.36353985
0.915721	54581976.26760644
0.918051	56663901.76447767
0.92039	64609020.93088705
0.922736	65214307.36698674
0.925089	63761998.65794939
0.927451	55847216.55949656
0.929819	47062623.02208293
0.932195	46566891.68309516
0.934579	49617268.23590776
0.93697	69294815.96266277
0.939369	74343170.96281669
0.941774	74415721.09276086
0.944187	67337922.40192747
0.946607	80277242.45346871
0.949035	81272866.82254034
0.951469	74193396.9744221
0.953911	76978290.25284357
0.956359	69950837.4659132
0.958814	84531704.54739323
0.961277	71671924.18727243
0.963746	69434502.97520846
0.966222	87578711.73964545
0.968705	95362606.49179119
0.971194	104850060.17196524
0.97369	101280332.0790619
0.976193	115514088.81449704
0.978702	115919123.0618083
0.981217	123283929.2897154
0.983739	120959351.58587106
0.986268	134484345.99307728
0.988802	129630251.73055692
0.991343	91426316.17220156
0.99389	103253218.0305636
0.996444	102741169.1917782
0.999003	70931326.73708953
1.00157	67419568.43925124
1.00414	77457375.97394866
1.00672	77574379.20615359
1.0093	85028047.40858132
1.01189	88336329.19775851
1.01448	101875312.110013
1.01708	103929952.4247408
1.01969	117826965.44873773
1.0223	120867625.18931046
1.02492	121761766.38248225
1.02754	119423594.24578992
1.03017	134544915.962984
1.0328	141932937.75690943
1.03544	143184307.39867252
1.03808	161698546.60330287
1.04073	164489764.4806963
1.04339	162477711.50234488
1.04604	162006088.7658309
1.04871	160264839.33173326
1.05138	161281635.97132206
1.05405	170175730.9570181
1.05673	166218166.794295
1.05941	178886609.3023179
1.0621	176528870.09145385
1.06479	191471201.7998692
1.06749	196072841.23119652
1.07019	212161231.16773885
1.07289	212293495.72484308
1.0756	223848084.03693095
1.07832	236480673.0124222
1.08104	231550237.0471839
1.08376	248245206.8920402
1.08649	231168433.27463183
1.08922	230475718.6405107
1.09195	219925076.88489294
1.09469	212967568.16410625
1.09743	183668757.73917192
1.10018	167316537.85952693
1.10293	142755888.3074418
1.10568	118878710.71270163
1.10844	128908913.25804594
1.1112	109000313.62982485
1.11396	95845708.58073464
1.11673	88357505.12863359
1.1195	113093157.12971514
1.12228	100365028.0451189
1.12505	115618329.81547314
1.12783	139666971.4230669
1.13062	121395981.6179393
1.13341	60762931.53921487
1.1362	71249723.17281605
1.13899	77324658.96004899
1.14178	101266056.06422284
1.14458	105655378.43759173
1.14738	119666579.54606713
1.15019	159979733.67877692
1.153	131466720.50879909
1.1558	119514714.83263528
1.15862	144136055.842732
1.16143	104914215.58963473
1.16425	91084847.78932801
1.16707	72384907.48754464
1.16989	72507128.9310579
1.17271	101643411.75424002
1.17554	70784659.83378606
1.17837	58306649.304992534
1.1812	112752713.25741972
1.18403	125335631.55337352
1.18686	140420095.6201418
1.1897	156776306.63994375
1.19253	169482313.71212265
1.19537	180767148.5419836
1.19822	190863966.521749
1.20106	203494762.0411599
1.2039	208054933.4401903
1.20675	218246174.30117735
1.2096	232681077.54881293
1.21245	241894383.01996207
1.2153	251905890.73609897
1.21815	251081421.1235116
1.221	269654275.33169734
1.22385	281650041.7323938
1.22671	287486644.8560651
1.22957	293201707.95071995
1.23242	298758098.02197284
1.23528	289705949.23044515
1.23814	281603032.57797
1.241	233956136.05095983
1.24387	185851904.28522125
1.24673	252392539.38815433
1.24959	205465277.37244427
1.25245	128815116.0158942
1.25532	229488345.66917086
1.25818	293062820.8773089
1.26105	322834312.9081368
1.26392	322678636.2590546
1.26678	341043934.693359
1.26965	337805829.34130925
1.27252	352670907.9848988
1.27538	352606988.76647043
1.27825	356369613.7223043
1.28112	358109222.6095987
1.28399	329281087.62740964
1.28686	336603966.4606731
1.28973	331700169.42561597
1.2926	334750233.72617686
1.29546	312681308.1113502
1.29833	302858715.50244737
1.3012	324414340.1189892
1.30407	333858144.3427596
1.30694	304060579.5155081
1.30981	318749327.2398515
1.31267	318092727.4609018
1.31554	290938301.90065014
1.31841	274324107.07943875
1.32128	285268523.8733154
1.32414	224859141.49179757
1.32701	173411088.1749733
1.32987	136655135.22081757
1.33274	68943797.94456509
1.3356	45238030.33658846
1.33847	14221204.475299926
1.34133	10798868.792245973
1.34419	14090703.528210271
1.34705	12057167.18427801
1.34991	13529707.403440291
1.35277	15758868.031705068
1.35563	6353650.186756278
1.35849	6847538.643327959
1.36135	9721003.08042831
1.3642	15570857.459044915
1.36706	17116980.942800812
1.36991	16370952.777390204
1.37277	16846752.27133082
1.37562	16564625.857671766
1.37847	15587510.008607697
1.38132	12851674.39528265
1.38417	7882981.15188911
1.38701	4000149.3429447776
1.38986	11856997.047918128
1.39271	12855980.875124907
1.39555	8514419.044016955
1.39839	13685482.411436
1.40123	17162688.95087681
1.40407	16343306.050619947
1.40691	13201572.743313408
1.40974	9517863.119058814
1.41258	13168016.061553767
1.41541	15318372.08331115
1.41824	8298795.653579419
1.42107	7022887.014414321
1.4239	6899736.092777487
1.42673	14316734.431559404
1.42955	18987603.00031682
1.43237	14268181.682048138
1.43519	18992199.76230567
1.43801	21514165.33019742
1.44083	19642536.496855956
1.44365	23719455.37043923
1.44646	21464458.462888554
1.44927	27082455.618708745
1.45208	35032593.21131802
1.45489	24923465.120083816
1.45769	38080837.070348
1.4605	38440166.14967677
1.4633	23282803.923002545
1.4661	37401886.524945594
1.4689	36102633.275977775
1.47169	39820459.07555234
1.47449	38849998.92843405
1.47728	39642747.74066313
1.48007	40465309.34664773
1.48286	42921714.29818936
1.48564	41080030.51568492
1.48842	41996745.54243011
1.4912	48771878.090509504
1.49398	47315114.43267809
1.49676	55612708.72817274
1.49953	59207994.017700925
1.5023	64664039.6470198
1.50507	73562141.00785573
1.50784	66928244.95575425
1.51061	73688774.265121
1.51337	78256281.86977948
1.51613	70372766.96231063
1.51888	68959996.77174665
1.52164	78171540.1357487
1.52439	87532193.26694265
1.52714	80819772.44176345
1.52989	86160445.69775374
1.53263	97160020.60913949
1.53538	107255182.07733826
1.53812	105960437.59388356
1.54086	101345549.97167437
1.54359	96757299.8222844
1.54632	112684873.8122649
1.54905	113164340.11619769
1.55178	114471591.72047679
1.5545	119229730.60470416
1.55723	119328295.17415822
1.55995	126836715.17994711
1.56266	126993554.75079808
1.56538	131503760.16995645
1.56809	143895934.9388893
1.5708	142940535.68438357
1.57351	143534471.4013955
1.57621	144908501.11610833
1.57891	144446597.4462097
1.58161	147634592.36404037
1.5843	148432854.52386302
1.587	149503619.49167195
1.58969	146570956.73138592
1.59238	143056385.9913988
1.59506	147889637.91685897
1.59774	149598776.24612784
1.60042	146549798.72078305
1.6031	142556920.4872428
1.60577	136200223.256506
1.60844	132771909.0027113
1.61111	137039448.92826143
1.61378	133737722.98330852
1.61644	126966039.85518411
1.6191	120373852.85277116
1.62176	126209031.34607048
1.62441	123785895.76241449
1.62707	125158167.3948657
1.62971	114220622.55897906
1.63236	122607164.88959204
1.635	126767791.83895025
1.63764	132414846.53518324
1.64028	116100600.447417
1.64292	121057915.33766392
1.64555	109140257.51231633
1.64818	120762235.67930213
1.65081	128708231.95166793
1.65343	119419600.03928833
1.65605	113237406.59017646
1.65867	116787265.16240768
1.66128	128537547.7454843
1.6639	112515199.08503544
1.66651	55126870.80424415
1.66911	46395654.71730729
1.67172	81791468.07923366
1.67432	104778936.75188817
1.67692	112987753.80564333
1.67951	110858922.25282943
1.68211	98676834.4204034
1.6847	83424098.64158657
1.68728	90102512.22146472
1.68987	89628977.62633969
1.69245	78294864.12034814
1.69503	74256073.72986676
1.6976	75078652.88662419
1.70018	77055049.98289423
1.70275	69199504.11056037
1.70531	65469262.88162369
1.70788	74234836.71043237
1.71044	78383196.49631338
1.713	79084106.83283599
1.71556	80393137.97878799
1.71811	81308527.2067796
1.72066	75254004.20100975
1.72321	60305598.0908985
1.72575	66151802.958089344
1.7283	73640967.96688685
1.73084	69273859.80550909
1.73337	58905130.478595026
1.73591	57752999.164448135
1.73844	59166917.84090322
1.74097	55561127.07082362
1.74349	51578861.15296504
1.74602	50802485.82958208
1.74854	58749570.21146282
1.75105	57188732.78256299
1.75357	43742182.93076136
1.75608	34205177.51571947
1.75859	38059802.26041113
1.7611	38166002.16293209
1.7636	37363765.07790836
1.7661	33884601.58516977
1.7686	28629040.31046861
1.7711	30876591.633718017
1.77359	29793392.569216795
1.77608	21737432.780684594
1.77857	22702358.79582282
1.78105	25325916.490476537
1.78354	20215082.78490882
1.78602	17195660.18881135
1.78849	21154533.235744417
1.79097	19465814.524359614
1.79344	17411885.29860592
1.79591	20251375.1701987
1.79837	25176645.58005585
1.80084	17802611.504872907
1.8033	16785905.000702195
1.80576	17594667.53539455
1.80821	16906114.311403945
1.81067	17189102.56183404
1.81312	20073775.309226766
1.81557	21593125.08429788
1.81801	16400198.25107837
1.82046	14485378.015763048
1.8229	17278089.041667998
1.82533	16341455.28812221
1.82777	13782992.598981421
1.8302	14603355.478413343
1.83263	14933019.3176006
1.83506	14590440.850696204
1.83749	15212403.951273326
1.83991	15804226.800747186
1.84233	16889798.518646564
1.84475	18902534.050008297
1.84716	16540714.379171085
1.84957	18401775.254459653
1.85198	20980448.747038588
1.85439	15935061.082165817
1.8568	11495650.240843663
1.8592	9701647.070102135
1.8616	9764756.630849306
1.864	9895303.846356587
1.86639	9075242.02943803
1.86878	8344589.433793646
1.87118	11185808.312631045
1.87356	12890765.889298912
1.87595	13873362.671637949
1.87833	19390540.715880726
1.88071	23802663.315564465
1.88309	21319928.16128806
1.88547	19538778.108902663
1.88784	22655747.6341776
1.89021	23681076.997636307
1.89258	25846668.454585437
1.89494	28051045.75320109
1.89731	24502496.676434513
1.89967	19987444.401011378
1.90203	20359826.925145756
1.90439	20922926.29402468
1.90674	26896626.602937594
1.90909	30068922.106487792
1.91144	20454930.52578947
1.91379	17726249.5810459
1.91613	24708082.899288114
1.91848	26690187.786322266
1.92082	21297633.134338606
1.92315	18351261.789738346
1.92549	19729215.453113582
1.92782	20653739.81004202
1.93015	18179381.630616203
1.93248	16569420.545890829
1.93481	15652473.833056651
1.93713	11845958.470101573
1.93945	9480107.974961186
1.94177	14918871.428591002
1.94409	18547263.444950245
1.94641	17022031.60034767
1.94872	17595269.403939303
1.95103	22338826.424958784
1.95334	21644061.23128639
1.95564	15998467.704853773
1.95795	14588992.391837519
1.96025	13506508.638910318
1.96255	12979813.32203784
1.96484	16808719.375263542
1.96714	19790700.767816044
1.96943	19258557.150611885
1.97172	20861400.32025847
1.97401	21759656.45069982
1.97629	21777265.501268268
1.97858	22674135.443707373
1.98086	19736682.32976112
1.98314	17744873.483932775
1.98541	22005514.989939287
1.98769	25679325.484576665
1.98996	22096208.405857276
1.99223	19866155.003262896
1.9945	23732369.493476856
1.99677	25527760.936839614
1.99903	23457648.620371718
2.00129	22516849.45140958
2.00355	24732108.38448573
2.00581	28338827.23019633
2.00806	27093769.97944226
2.01031	26785740.13660158
2.01256	32844922.531575534
2.01481	35152684.13516036
2.01706	30798929.901024584
2.0193	30895107.075185794
2.02154	36509546.85381358
2.02378	38032386.997693434
2.02602	33879280.999447964
2.02825	32137398.1804028
2.03049	34755336.01481615
2.03272	39500634.61615623
2.03494	41025626.915559955
2.03717	40152944.342899926
2.03939	41017578.94752615
2.04162	43382055.71972008
2.04384	44959421.41119294
2.04605	45149464.40431933
2.04827	43604080.38367973
2.05048	43501371.81324975
2.05269	43470117.750122905
2.0549	41712566.269343495
2.05711	44110706.61166412
2.05931	46130698.69228221
2.06151	45541570.43496247
2.06371	46102134.618894
2.06591	46445337.44774704
2.06811	47712026.741822794
2.0703	49675924.986271285
2.07249	50409602.68230084
2.07468	49319222.01777826
2.07686	48448709.94133937
2.07905	49592896.06105575
2.08123	51121076.11205185
2.08341	51865765.97237656
2.08559	51580417.410557404
2.08776	51508358.26959426
2.08994	52011760.04869755
2.09211	51996608.11140405
2.09428	52239688.46074204
2.09645	52759503.1585668
2.09861	52067279.04078796
2.10077	50688139.54670283
2.10293	50406999.48606533
2.10509	51381363.68868574
2.10725	51637085.266558826
2.1094	49934236.25296269
2.11155	47478925.79079438
2.1137	47082152.50166755
2.11585	47826720.60703485
2.11799	48365511.56353524
2.12013	49355224.98497965
2.12227	49890464.72680307
2.12441	50093995.4084106
2.12655	49789929.97864027
2.12868	48640374.750959076
2.13081	48125152.959995404
2.13294	48222953.0468621
2.13507	47150128.62885471
2.13719	46233100.75562692
2.13931	46835040.31776621
2.14143	47201071.65054502
2.14355	46276794.99395009
2.14567	44703077.58725613
2.14778	42761659.76399424
2.14989	41480390.26184748
2.152	41304038.71088057
2.1541	41127928.68099982
2.15621	40867616.575884864
2.15831	40080405.894712515
2.16041	38666781.51397515
2.16251	38419054.31180478
2.1646	38599964.88370121
2.1667	38612515.49357798
2.16879	39367705.760473095
2.17087	39856053.044683866
2.17296	38941740.212693304
2.17504	37951013.55299056
2.17713	37489703.193970345
2.1792	36007743.947377004
2.18128	32531866.621071946
2.18336	29140411.808876086
2.18543	28916918.279303763
2.1875	29775883.539013583
2.18957	29108115.719938446
2.19163	28574588.848600186
2.1937	28452369.226277824
2.19576	26441660.20839677
2.19782	22208538.33004313
2.19987	17594328.770077486
2.20193	14757064.307544382
2.20398	13472580.60329462
2.20603	12867926.666352758
2.20808	13427180.614846637
2.21012	14440051.850458832
2.21217	15251938.49843298
2.21421	16916924.34581604
2.21625	18767420.89610503
2.21828	19687417.486963145
2.22032	20330901.269408245
2.22235	20334715.303253543
2.22438	19031153.313426573
2.22641	16600911.93594918
2.22843	15314151.786700742
2.23046	15227277.423279695
2.23248	14889954.011490224
2.2345	14130673.911154898
2.23651	12891486.336663049
2.23853	11937437.248364655
2.24054	12336131.84867453
2.24255	13867804.221831989
2.24456	15259819.667628545
2.24657	15687092.158317143
2.24857	15438140.57805672
2.25057	14878969.517714228
2.25257	14165852.143162718
2.25457	13007584.915031038
2.25656	11996387.62078806
2.25856	11686157.780912036
2.26055	11516602.692325098
2.26254	10445089.264400294
2.26453	9513654.956728455
2.26651	9602571.388183959
2.2685	10077061.938722473
2.27048	10389767.692755163
2.27246	10953683.919025635
2.27443	11059039.840207782
2.27641	11070924.140226906
2.27838	11435977.59536968
2.28036	11158659.139586078
2.28233	10273470.716596005
2.28429	9584464.491733758
2.28626	8936636.325837592
2.28823	8325652.416646346
2.29019	8034877.45351556
2.29215	7893687.772021715
2.29411	7846786.521942597
2.29607	8026719.686518464
2.29802	8759989.449606823
2.29998	9926688.826524237
2.30193	11275462.815457666
2.30388	12309475.771664849
2.30583	12909471.01768272
2.30778	13701235.571744492
2.30972	14696585.832329476
2.31167	15066412.243320148
2.31361	13341721.83817228
2.31555	10410019.599842614
2.31749	8231713.744012978
2.31943	7667511.841360385
2.32137	7203990.840687743
2.32331	6325935.532083154
2.32524	5494646.806406121
2.32718	4694222.531741846
2.32911	4278739.589679169
2.33104	4556887.057498147
2.33297	5188049.337984502
2.3349	5810706.211723641
2.33683	6596935.047334359
2.33876	7411390.783798562
2.34068	8059685.514381188
2.34261	8606101.690209687
2.34453	9079753.220992252
2.34646	9235447.2330107
2.34838	8899973.910949476
2.3503	8271366.163818792
2.35223	8203204.618386937
2.35415	8226245.2299682535
2.35607	7758207.948038071
2.35799	8077576.153939313
2.35991	9286360.43596268
2.36183	10468668.538223965
2.36375	11354377.656850345
2.36566	12188186.980654057
2.36758	11738497.192188572
2.3695	10096678.636168186
2.37142	8679506.164471382
2.37334	8135930.735606433
2.37526	7656386.822170678
2.37718	7105408.291388004
2.3791	6924609.874213491
2.38101	6876225.873952575
2.38293	6736964.288550169
2.38485	6868961.3148390185
2.38677	7954485.655366752
2.3887	9381602.359335031
2.39062	9928817.099670319
2.39254	9825202.097424079
2.39446	9987374.030559659
2.39639	10131632.383154543
2.39831	9656421.097245624
2.40024	9342335.68875104
2.40216	9530379.436555319
2.40409	10233278.005680546
2.40602	10346768.296607366
2.40795	10187093.185549982
2.40989	10956542.772687325
2.41182	12411663.394873831
2.41376	12823857.295604713
2.4157	12528806.78142363
2.41764	11985808.104306193
2.41958	11744406.768055994
2.42152	11558314.00305489
2.42347	11506841.817255905
