#wavelength	surface flux
0.676892	104658.84305972992
0.678297	111384.03240428862
0.679702	117943.1923679295
0.681109	124316.52088469637
0.682517	129978.25609272087
0.683926	135785.51897669915
0.685337	141142.64819088837
0.686749	145544.90668660367
0.688164	149252.14929273052
0.689581	151735.27238917974
0.691	151242.7546847955
0.692422	150942.2210925609
0.693847	151860.42729542867
0.695274	154365.46455608957
0.696705	154677.68673482243
0.698139	156521.73727925215
0.699576	155006.98560968816
0.701017	152697.95575992417
0.702461	149568.7800603806
0.70391	147787.05835887667
0.705362	142950.48822329182
0.706819	138435.33493659977
0.70828	134872.91702145664
0.709745	128223.2856837786
0.711216	121760.126993526
0.71269	116763.40957988959
0.71417	110934.16976367295
0.715655	97892.66969070082
0.717145	88408.12523173571
0.71864	78144.88655810048
0.72014	73757.06877704544
0.721647	70503.73031050168
0.723158	71424.50736834713
0.724676	63488.944183266765
0.726199	57054.790446803374
0.727728	48187.2919353031
0.729264	48626.24532428167
0.730805	43041.72374939713
0.732353	41990.05767432739
0.733907	37728.54688056689
0.735468	30600.46805217049
0.737035	30720.240541119765
0.738609	27659.87543175588
0.74019	24708.674409357467
0.741777	21826.14554022732
0.743372	19457.940933738817
0.744973	16925.235660779737
0.746582	14490.586587216469
0.748197	12176.892433536668
0.74982	10513.80179965167
0.751451	8780.578600905807
0.753088	7276.696382090129
0.754734	5968.92690315281
0.756386	4815.680107416143
0.758047	3821.4783052800317
0.759715	2964.2199150391784
0.76139	2221.5484596406436
0.763074	1534.0997593492837
0.764765	750.9214089342596
0.766464	195.63720532191073
0.768172	450.3389865053299
0.769887	308.88537723281974
0.77161	1186.68690165319
0.773341	2334.2967678725395
0.775081	3465.1851111311585
0.776829	4807.725674853271
0.778585	5833.336027360896
0.780349	6074.7599284948465
0.782121	10620.280157820813
0.783902	13786.828342528139
0.785691	17315.240032072612
0.787489	21877.067622007304
0.789295	27160.180907399892
0.79111	32881.36116212086
0.792933	35417.854563809124
0.794764	24438.77529498896
0.796604	50287.91475804325
0.798453	65749.49966636195
0.80031	79153.3332249907
0.802176	92764.18146606443
0.804051	109682.45097065125
0.805934	125347.15185990903
0.807826	144054.96522383307
0.809727	162603.50102040157
0.811636	180323.8846620092
0.813554	196808.56605454377
0.81548	223149.92883226107
0.817416	260860.44744556452
0.81936	277588.24006701837
0.821313	333420.85041137814
0.823274	376522.0238886277
0.825244	395712.22332056944
0.827223	469836.91870180325
0.829211	489830.61119479296
0.831208	533172.178688512
0.833213	633539.8863767916
0.835227	680966.031160915
0.837249	654049.7108261936
0.83928	786763.6472630264
0.841321	899666.566015125
0.843369	958739.1436999335
0.845427	1024820.2608981412
0.847493	1186088.2617352263
0.849567	1131352.705199176
0.851651	842142.0409672331
0.853742	1334052.5797102405
0.855843	1584515.2154790272
0.857952	1716988.476307602
0.86007	1864382.3189323784
0.862196	1672474.8677247853
0.864331	1805200.389446871
0.866474	2039404.867673349
0.868626	2176399.9490232845
0.870786	2198646.696762417
0.872955	2394929.978679993
0.875132	2335685.2423239765
0.877317	2839330.0490387403
0.879511	2961763.476298473
0.881713	2375766.6097292732
0.883923	2143612.426182493
0.886142	2454744.5566796567
0.888369	2160455.7167628296
0.890604	2466358.962082002
0.892847	2020998.082823655
0.895099	1680472.8077954517
0.897358	2974090.3466263846
0.899626	3503809.6428440996
0.901901	3983149.472191188
0.904185	5200698.200651588
0.906476	5632260.250373722
0.908776	4728408.46372219
0.911083	5667777.189238595
0.913398	5345127.887375016
0.915721	6460043.556163485
0.918051	6470336.8361942945
0.92039	6974050.502748404
0.922736	6572467.807713121
0.925089	5566727.529780429
0.927451	3937067.14835646
0.929819	2361626.086278598
0.932195	1523770.6397714217
0.934579	1316367.272420214
0.93697	4855794.522491692
0.939369	5924952.59457715
0.941774	4542817.5118885385
0.944187	4042805.9000350847
0.946607	5830812.181563726
0.949035	6716369.954372319
0.951469	3204358.8942585355
0.953911	4485086.010818191
0.956359	4213343.865173115
0.958814	5792238.780075035
0.961277	3496970.631563338
0.963746	3851656.0889308075
0.966222	5624851.049456058
0.968705	6329079.058997444
0.971194	6905715.297009423
0.97369	5966668.947168613
0.976193	8249729.959273724
0.978702	7740789.448287606
0.981217	7175527.342956509
0.983739	5183038.992650747
0.986268	7688928.053569324
0.988802	8632322.473589549
0.991343	7221687.026682573
0.99389	10203282.933521017
0.996444	11451229.120780451
0.999003	5920842.873498454
1.00157	8237969.786142602
1.00414	9991741.54294928
1.00672	11910742.967973206
1.0093	11300430.753636293
1.01189	13038010.196200991
1.01448	15234380.193335518
1.01708	16306005.727656025
1.01969	18946703.792826865
1.0223	19246833.39123542
1.02492	19315622.77479513
1.02754	21171996.034454633
1.03017	25078284.61463902
1.0328	23268476.723206107
1.03544	26211346.647405636
1.03808	32407915.63061117
1.04073	29469080.912300732
1.04339	31179872.577579632
1.04604	30043889.0580469
1.04871	31889453.290775612
1.05138	33319940.327859376
1.05405	37914305.29902058
1.05673	34640609.37328555
1.05941	40961737.19876302
1.0621	38011381.8284574
1.06479	40888591.595718436
1.06749	42120788.73551313
1.07019	48055507.295418195
1.07289	45809304.69608976
1.0756	45535932.43336708
1.07832	43314687.99686588
1.08104	45050268.95841512
1.08376	40634084.492502876
1.08649	37734459.45697826
1.08922	26491778.57424262
1.09195	18458877.579573814
1.09469	15072393.610648403
1.09743	11950549.631779091
1.10018	11206518.923504587
1.10293	8167217.3729474135
1.10568	6163718.903521706
1.10844	7023732.293156866
1.1112	4921092.672490843
1.11396	3937442.9709800147
1.11673	2356461.639095633
1.1195	3640390.7222009148
1.12228	2384928.7233973746
1.12505	3297807.5529856184
1.12783	4604167.115566107
1.13062	5321509.500025736
1.13341	1351387.9711420073
1.1362	1777247.4356199123
1.13899	3083350.3528560163
1.14178	5176631.799866388
1.14458	3719430.699820454
1.14738	3563337.3116167053
1.15019	5967783.535648925
1.153	4100459.044172958
1.1558	2407717.6991804265
1.15862	4597273.987129959
1.16143	2126799.094658988
1.16425	1145950.0625415323
1.16707	3207905.8442354626
1.16989	3545970.413062822
1.17271	5256081.592250977
1.17554	5641572.31953575
1.17837	3530432.8841019636
1.1812	9139585.969804266
1.18403	12099890.377919381
1.18686	9039778.9876387
1.1897	11125256.315525983
1.19253	13200603.211238185
1.19537	17186342.462838158
1.19822	12493258.439904595
1.20106	13181502.263670491
1.2039	17823281.674867216
1.20675	22842923.49873188
1.2096	27520071.77906309
1.21245	27010333.8210161
1.2153	27802536.165369853
1.21815	26556783.8330269
1.221	28292315.92220543
1.22385	32991054.95207069
1.22671	33367760.65098454
1.22957	40801273.86823859
1.23242	40689108.154015236
1.23528	37060812.41316373
1.23814	41951972.65891188
1.241	48084734.81832977
1.24387	41244555.01990365
1.24673	52032425.545396596
1.24959	46832034.83472378
1.25245	33403227.079228453
1.25532	56504512.63416008
1.25818	58744206.81077007
1.26105	61416521.75345585
1.26392	39673693.21391345
1.26678	50186615.148245394
1.26965	38547871.41771325
1.27252	53106470.61396258
1.27538	56997420.189318955
1.27825	48239822.25615144
1.28112	52402179.8784214
1.28399	39571326.99465107
1.28686	39109540.28421466
1.28973	36569976.02208071
1.2926	36522495.64026368
1.29546	30832317.597260013
1.29833	26074569.47409644
1.3012	37195229.056570284
1.30407	37187048.33530109
1.30694	27835105.28826959
1.30981	27272461.902666874
1.31267	32431883.425900042
1.31554	23021709.13977295
1.31841	20861199.02381073
1.32128	23188554.798895292
1.32414	14464219.426262716
1.32701	7802453.030207552
1.32987	4720538.368203088
1.33274	4535539.093716312
1.3356	3335531.146679047
1.33847	731789.6772232851
1.34133	579435.5473558501
1.34419	637985.2647644675
1.34705	474875.80732909986
1.34991	880507.1104075554
1.35277	794375.0298922156
1.35563	295222.3808233409
1.35849	246185.16369888978
1.36135	335525.28437528684
1.3642	686570.4404899328
1.36706	460930.0536795431
1.36991	333724.5648669975
1.37277	475705.55904022057
1.37562	230061.9437674184
1.37847	203903.9189963448
1.38132	738691.7710938649
1.38417	237001.56162247714
1.38701	38707.56787087362
1.38986	298098.50193618704
1.39271	534184.018452789
1.39555	224427.68801283004
1.39839	347176.4462487706
1.40123	613664.8648965369
1.40407	434637.7369341551
1.40691	291641.3661246454
1.40974	226172.8367943548
1.41258	594951.3369695087
1.41541	693590.0953309009
1.41824	294974.1993270518
1.42107	87682.66114835256
1.4239	111580.9146083568
1.42673	687334.8388398312
1.42955	1101918.488103195
1.43237	594604.0533391683
1.43519	1273035.4405393954
1.43801	1382182.6064729618
1.44083	881944.4108853485
1.44365	917242.5362431741
1.44646	788891.326492502
1.44927	1288366.1708228257
1.45208	2664415.3624953274
1.45489	2286542.461645456
1.45769	3433295.6534063597
1.4605	2608958.9958849996
1.4633	1599238.7429378114
1.4661	2578199.7272471506
1.4689	2282227.823656989
1.47169	1849082.9435985724
1.47449	2109866.08295365
1.47728	2413493.7979274536
1.48007	2308181.4076033635
1.48286	2143491.376695995
1.48564	2119580.256345446
1.48842	2854437.088119851
1.4912	3933557.8313862705
1.49398	2007652.744938911
1.49676	2858335.30829966
1.49953	3623852.2338512787
1.5023	6201039.805720496
1.50507	6945393.324230333
1.50784	5464493.818699388
1.51061	6125155.333402718
1.51337	6943695.706237438
1.51613	4520762.122835597
1.51888	3662135.8858356397
1.52164	5457123.382899279
1.52439	6868331.631391021
1.52714	4805216.15755021
1.52989	5419449.861082674
1.53263	7711800.164794746
1.53538	9599340.018698676
1.53812	6929469.414149976
1.54086	5216517.681669186
1.54359	5337008.085999263
1.54632	8706986.667740762
1.54905	9331399.566051388
1.55178	8765450.510016592
1.5545	7664409.843062283
1.55723	10382584.75669061
1.55995	11464549.793601176
1.56266	9770141.853820939
1.56538	14601295.0104067
1.56809	17742921.133773215
1.5708	14648450.022806473
1.57351	15486724.328807557
1.57621	14540051.918640435
1.57891	13735974.663296051
1.58161	17612056.787531562
1.5843	15506332.35981307
1.587	15103388.074377855
1.58969	15358003.069174306
1.59238	12893478.37117611
1.59506	16421889.044082478
1.59774	17841771.024593085
1.60042	13290844.661401613
1.6031	10963307.767327705
1.60577	10288347.129723728
1.60844	7926907.472654206
1.61111	8045514.982214213
1.61378	7350860.739561985
1.61644	8035148.65937121
1.6191	6827505.513863878
1.62176	7456013.059844134
1.62441	9013925.428709019
1.62707	11421596.37996622
1.62971	11946124.502349626
1.63236	9958815.011734702
1.635	14678216.483727938
1.63764	16009513.552961363
1.64028	10551564.630585337
1.64292	8196104.3996676365
1.64555	5421216.874891567
1.64818	4496880.755478622
1.65081	10087395.839665378
1.65343	12411466.456318034
1.65605	7159443.109951777
1.65867	5654703.084752565
1.66128	10002527.023920095
1.6639	6780934.970023618
1.66651	1422917.5547465463
1.66911	250176.96879846026
1.67172	1293925.4154277495
1.67432	3197143.863099901
1.67692	5909534.334839822
1.67951	5035961.067536535
1.68211	3127666.1347673284
1.6847	1696265.0562702992
1.68728	1247191.518948057
1.68987	1347339.5866403263
1.69245	1203777.6338542749
1.69503	744301.332498988
1.6976	902670.2783620477
1.70018	1076585.5127092695
1.70275	584119.8947685688
1.70531	818497.9481681094
1.70788	1379062.2488253228
1.71044	2701638.870602065
1.713	4827752.201984592
1.71556	5473656.899540945
1.71811	5141852.357732196
1.72066	3089665.120674059
1.72321	1751380.1868003176
1.72575	3191956.742654811
1.7283	4599551.806841199
1.73084	4754280.999711953
1.73337	2391267.3279185942
1.73591	1500984.638258312
1.73844	2144614.4116832074
1.74097	2001842.2832490064
1.74349	2368367.530280405
1.74602	3456296.2486427776
1.74854	4179858.0550800865
1.75105	4592637.640228943
1.75357	3526403.470024378
1.75608	1823269.4161458327
1.75859	1157710.8838069106
1.7611	921976.3478807895
1.7636	1529681.8710840533
1.7661	1838562.971082998
1.7686	1650106.253687498
1.7711	2331766.6560473586
1.77359	1561801.2483969457
1.77608	852769.3683900093
1.77857	2296923.7022272777
1.78105	3461042.7657540375
1.78354	2193758.1016189447
1.78602	1506675.3830604323
1.78849	1611053.4510436852
1.79097	1441691.1965898324
1.79344	1373810.2411092173
1.79591	1567216.2686918487
1.79837	2538977.3116893563
1.80084	1850070.8413423495
1.8033	1566594.2416741229
1.80576	1586007.2914216102
1.80821	1813326.9807366137
1.81067	1850864.440561449
1.81312	2262340.739720197
1.81557	2225454.8904964817
1.81801	940800.0721302315
1.82046	928138.0674549312
1.8229	1658090.0575630087
1.82533	1314503.9475334438
1.82777	1070048.9176158742
1.8302	1353481.8389967107
1.83263	1200375.1489354281
1.83506	775396.6651732833
1.83749	806385.0712031393
1.83991	1189070.4359928984
1.84233	1631910.9769328875
1.84475	2088160.0862567292
1.84716	1517393.542449341
1.84957	1265165.2694811856
1.85198	1412597.035397582
1.85439	1282636.7424630008
1.8568	858742.8823520069
1.8592	510113.9805637969
1.8616	710937.0594215883
1.864	824447.6199714568
1.86639	547626.7176420643
1.86878	464523.7209997367
1.87118	920215.0264529787
1.87356	989745.3719754397
1.87595	1056810.0740566377
1.87833	2362451.5063318782
1.88071	3034937.433183089
1.88309	2153065.429748679
1.88547	1852669.7461325186
1.88784	2352743.4259076356
1.89021	2594108.6979289176
1.89258	3139751.5187728843
1.89494	4509923.0463461485
1.89731	3979260.50322843
1.89967	2157950.1500281715
1.90203	1882494.1803435974
1.90439	2038291.238202564
1.90674	2567323.199270617
1.90909	2506010.861184803
1.91144	1204324.1450193925
1.91379	1196453.2316917786
1.91613	2318640.771001945
1.91848	2720971.5696222764
1.92082	1851877.0014985222
1.92315	1509468.9542403077
1.92549	1790639.558659583
1.92782	1755862.030815322
1.93015	1189455.4146385235
1.93248	620328.7996144941
1.93481	436079.63346119784
1.93713	432095.57583094714
1.93945	586881.8980963068
1.94177	1264269.2176814126
1.94409	1672688.5942928756
1.94641	1777195.371942897
1.94872	1886114.8303370636
1.95103	2274628.930374256
1.95334	2225184.60429858
1.95564	1684063.0194476715
1.95795	1550750.2302448724
1.96025	1127311.4453051453
1.96255	923379.2747522288
1.96484	1575584.1223302651
1.96714	2129265.8026394485
1.96943	2058145.7774764968
1.97172	2336648.9222521554
1.97401	2319320.5387185453
1.97629	2040185.5075916944
1.97858	2208202.623432311
1.98086	1930967.3692232494
1.98314	1417021.6013090715
1.98541	1812848.9885993297
1.98769	2928241.1574996747
1.98996	3087876.084631418
1.99223	2686869.1405365467
1.9945	3147067.2631045873
1.99677	3514345.896198218
1.99903	3359123.0417609075
2.00129	3224129.690278221
2.00355	3281193.093623091
2.00581	3588242.8253961825
2.00806	3948996.1632509115
2.01031	4395444.680421039
2.01256	5546607.102638248
2.01481	6042263.838515391
2.01706	5109216.1067616325
2.0193	4765567.166277717
2.02154	5418675.38142638
2.02378	5676654.825228672
2.02602	5130496.760314897
2.02825	4766180.387203872
2.03049	5089282.918685579
2.03272	6105733.665988942
2.03494	6655801.507732513
2.03717	6233336.821981462
2.03939	5948614.313491755
2.04162	7315838.659378234
2.04384	8919427.274395846
2.04605	8970846.392562924
2.04827	8051277.57050049
2.05048	8075875.659284157
2.05269	8178868.850101432
2.0549	7190235.741089144
2.05711	7381921.749566305
2.05931	7826043.530576608
2.06151	7932679.681386397
2.06371	7920076.735446606
2.06591	7352393.837793811
2.06811	7631683.348862586
2.0703	8724460.573055303
2.07249	9748945.268481834
2.07468	10243217.830442332
2.07686	9786865.269809669
2.07905	9289781.444310889
2.08123	9249384.228227843
2.08341	9124058.433340063
2.08559	8718116.398770282
2.08776	9008020.332802327
2.08994	9653953.527291467
2.09211	9706593.779820697
2.09428	10092054.103887718
2.09645	10549982.731626747
2.09861	9794517.098960998
2.10077	8679280.066665214
2.10293	8304857.96613241
2.10509	8454869.107356234
2.10725	8441272.915393794
2.1094	7344592.503767948
2.11155	5819132.697009973
2.1137	5651893.652736248
2.11585	6030172.025557131
2.11799	6598525.865287294
2.12013	7478017.890877696
2.12227	7626093.192059605
2.12441	7568813.818053648
2.12655	7465491.397407497
2.12868	6967478.606733188
2.13081	6685611.40064408
2.13294	6341772.1219797395
2.13507	5352518.419731565
2.13719	4598301.778359467
2.13931	5046831.354195722
2.14143	5524190.030635761
2.14355	4997095.328504225
2.14567	4342608.4707387835
2.14778	3607971.4864086793
2.14989	3033968.780981046
2.152	3187248.5479250276
2.1541	3411274.4988441663
2.15621	3362837.6071383823
2.15831	2983665.8486764575
2.16041	2106852.0450555445
2.16251	1559882.0753907745
2.1646	1626902.3922651648
2.1667	1746739.506358707
2.16879	2048666.3214458711
2.17087	2593358.2499798927
2.17296	2752142.8447928224
2.17504	2685639.1470893654
2.17713	2745450.600087972
2.1792	2626759.0404491597
2.18128	2202014.2679127096
2.18336	1559030.7448160865
2.18543	1145759.951649224
2.1875	1015492.3452040976
2.18957	898191.5652200307
2.19163	877151.2224558588
2.1937	1021502.1179501922
2.19576	950878.6974707643
2.19782	578839.2857041048
2.19987	258837.0799161906
2.20193	157563.62614131992
2.20398	168460.3792229599
2.20603	170121.79613359063
2.20808	169303.80209244214
2.21012	182232.88468021774
2.21217	209025.99183844024
2.21421	275193.2374974571
2.21625	324457.2300173852
2.21828	317102.1502559987
2.22032	327062.74379771866
2.22235	357534.67982762813
2.22438	367725.83386931784
2.22641	353901.9870234514
2.22843	376924.91398801847
2.23046	351185.5385493613
2.23248	229315.79466247754
2.2345	125882.30204037091
2.23651	87641.69583929991
2.23853	93250.78328795786
2.24054	135487.5413202511
2.24255	188968.99842461958
2.24456	226273.04358929707
2.24657	239067.6452446382
2.24857	232858.60001468763
2.25057	200226.3192788879
2.25257	140222.26552357807
2.25457	88794.0264502587
2.25656	72774.45121758331
2.25856	78682.78044151778
2.26055	82733.579972431
2.26254	75066.51666221546
2.26453	73436.02310182343
2.26651	88379.24169118002
2.2685	99321.17604374222
2.27048	99603.21983403774
2.27246	103430.46086140462
2.27443	99950.6623610129
2.27641	98902.3465068903
2.27838	113085.96180325792
2.28036	122434.81524100043
2.28233	116948.77187168837
2.28429	101872.15138241914
2.28626	84216.09851257087
2.28823	64948.376577869865
2.29019	45926.68456552342
2.29215	32391.267299637562
2.29411	33787.90035827359
2.29607	47409.84677663421
2.29802	67668.48192175374
2.29998	99668.14829183446
2.30193	148947.42346535847
2.30388	188991.0500439609
2.30583	204824.627758449
2.30778	228335.3251011846
2.30972	276584.91158116574
2.31167	323950.3924492847
2.31361	299195.0877809112
2.31555	205996.65490777185
2.31749	100554.20616054628
2.31943	56391.78288934563
2.32137	43972.92726291975
2.32331	37996.300068343044
2.32524	33633.17453082451
2.32718	31185.812165418334
2.32911	29855.772548039135
2.33104	30028.920378188242
2.33297	35886.85180089999
2.3349	53956.66303249658
2.33683	80636.8563436838
2.33876	93594.21537755865
2.34068	91539.23755381632
2.34261	86851.9340802111
2.34453	91433.34329054714
2.34646	110022.39120940297
2.34838	136765.9812563554
2.3503	147266.33691338007
2.35223	147047.57927437406
2.35415	135872.06047697162
2.35607	115151.62510573339
2.35799	111399.61863630444
2.35991	134607.1430553613
2.36183	170958.6722139004
2.36375	198391.61890282237
2.36566	201285.4716133481
2.36758	173405.7456607582
2.3695	150688.95099243303
2.37142	152496.77398316705
2.37334	159324.49943406598
2.37526	137112.46611269162
2.37718	102286.92165355162
2.3791	80174.3595576619
2.38101	72991.9659706114
2.38293	79536.08216446181
2.38485	103169.50686008172
2.38677	145989.32679094502
2.3887	175282.99204659578
2.39062	165624.55257875042
2.39254	150793.8450822167
2.39446	170431.28725447028
2.39639	207295.76311410655
2.39831	237709.40835686534
2.40024	274703.3806213213
2.40216	311506.6588954653
2.40409	348296.0069211633
2.40602	331355.78417655843
2.40795	281625.0177002088
2.40989	261559.21833973148
2.41182	298565.71532075346
2.41376	343600.8003209377
2.4157	413566.10325050936
2.41764	452589.8464059638
2.41958	423607.7905082016
2.42152	343969.4475523781
2.42347	300249.7485575141
2.42542	336250.49598560896
