#wavelength	surface flux
0.8	220164.66961230917
0.8002000000000001	224538.0014913135
0.8004000500000003	228844.61590533264
0.8006001500125003	232911.24894182093
0.8008003000500035	237346.3699512243
0.8010005001250161	241392.5520009059
0.8012007502500472	246531.89939120837
0.8014010504376099	250576.9248668058
0.8016014007002193	254489.1948541033
0.8018018010503944	259651.43389602515
0.8020022515006572	263185.2954097427
0.8022027520635323	268379.24840927694
0.8024033027515483	273370.7727560359
0.8026039035772362	277183.5618343446
0.8028045545531306	283160.9533151395
0.8030052556917691	286854.07514171745
0.803206007005692	292430.71181958815
0.8034068085074435	296530.6626126756
0.8036076602095705	302834.3515120295
0.8038085621246229	308225.3325691786
0.8040095142651542	313807.20243848406
0.8042105166437206	317065.61787502386
0.8044115692728815	322769.17224894074
0.8046126721651998	327468.8975418285
0.8048138253332411	334254.7900202104
0.8050150287895745	340786.54015758884
0.805216282546772	345639.7158474659
0.8054175866174087	349035.1939703264
0.8056189410140631	356085.957016105
0.8058203457493168	360864.91386657686
0.8060218008357541	368272.269843181
0.8062233062859632	369662.09190798516
0.8064248621125346	378341.4317846092
0.806626468328063	385380.3959484081
0.8068281249451449	390341.2329577557
0.8070298319763813	395093.2264318745
0.8072315894343755	399863.9929549284
0.8074333973317341	408262.45046388626
0.8076352556810671	415333.78262548236
0.8078371644949874	420755.4543972256
0.8080391237861113	429859.2833207931
0.8082411335670578	432028.72191691416
0.8084431938504498	438018.53602854256
0.8086453046489125	444875.05570539675
0.8088474659750746	449334.58981634834
0.8090496778415686	455908.4317759866
0.809251940261029	453981.73686182784
0.8094542532460944	471826.1835759297
0.8096566168094059	477851.77617779584
0.8098590309636085	483995.8385305642
0.8100614957213493	478641.1180769108
0.8102640110952797	492483.7593431638
0.8104665770980536	497097.58540568623
0.8106691937423283	507899.0984414648
0.8108718610407639	509425.4571476376
0.8110745790060241	514117.3734685291
0.8112773476507757	527252.122091927
0.8114801669876885	529942.8576399061
0.8116830370294355	533318.7661355935
0.8118859577886929	560627.8218544726
0.8120889292781401	556384.3872628048
0.8122919515104597	554120.5635968178
0.8124950244983374	553172.6372955146
0.8126981482544621	580624.2098526144
0.8129013227915257	591057.844068184
0.8131045481222237	597052.3548040726
0.8133078242592543	592864.7475829961
0.8135111512153191	601575.3415183363
0.813714529003123	602429.5182619231
0.8139179576353739	622954.7262789595
0.8141214371247829	629923.9132029663
0.8143249674840641	618148.2545909351
0.814528548725935	650959.6131887003
0.8147321808631167	666036.0239913459
0.8149358639083326	662255.4134688139
0.8151395978743097	643379.5493430707
0.8153433827737784	692837.5280001985
0.8155472186194719	684372.3066880729
0.8157511054241268	695223.9915938755
0.815955043200483	716775.2114179367
0.8161590319612831	731466.4186035972
0.8163630717192736	699447.5051680856
0.8165671624872033	737703.6999911577
0.8167713042778252	751962.6580860643
0.8169754971038948	773067.7525582856
0.8171797409781707	738035.1250526741
0.8173840359134155	795928.8143891128
0.8175883819223938	805794.4783803802
0.8177927790178745	810129.6080722832
0.8179972272126291	796234.9408351344
0.8182017265194322	799590.0772515491
0.8184062769510622	773146.7665306114
0.8186108785203001	845625.5190316198
0.8188155312399301	842233.4494424083
0.8190202351227402	857458.6802420691
0.819224990181521	832560.5801059245
0.8194297964290664	745705.33380417
0.8196346538781738	819074.8214323297
0.8198395625416434	898817.9381458148
0.8200445224322789	904965.0693878168
0.820249533562887	931619.9013502563
0.8204545959462778	949010.6116714271
0.8206597095952644	960627.26452058
0.8208648745226633	972560.2136000919
0.8210700907412941	982749.3942568069
0.8212753582639793	996017.4165311917
0.8214806771035456	1010439.0195536171
0.8216860472728215	1021922.6366863546
0.8218914687846397	1029153.8890703979
0.822096941651836	1043478.7280132123
0.822302465887249	1056644.276397939
0.8225080415037209	1070504.3781889365
0.8227136685140968	1045773.72868745
0.8229193469312254	992420.5830333936
0.8231250767679583	988156.2148802385
0.8233308580371503	1064984.520653163
0.8235366907516598	1087518.5495702105
0.8237425749243477	1122514.7571701524
0.8239485105680789	1129951.2730476141
0.824154497695721	1155492.9292209502
0.824360536320145	1152801.2407359714
0.8245666264542252	1132466.1674640537
0.8247727681108388	1215250.4278519365
0.8249789613028664	1224694.3732579001
0.8251852060431922	1240852.1344274357
0.825391502344703	1262536.140863161
0.8255978502202894	1274892.4415600009
0.8258042496828445	1273397.514068537
0.8260107007452654	1301367.05620754
0.8262172034204517	1277238.6547501376
0.8264237577213068	1311166.7552709156
0.8266303636607373	1331708.6832663594
0.8268370212516525	1361448.362355973
0.8270437305069654	1374324.3117105034
0.8272504914395923	1383940.5281863122
0.8274573040624523	1376474.5987543818
0.8276641683884679	1395428.4291664346
0.8278710844305652	1409295.4443493036
0.8280780522016729	1444630.3961810598
0.8282850717147234	1445647.898616439
0.8284921429826521	1470085.2293508796
0.8286992660183978	1491303.5058305245
0.8289064408349024	1481061.96089719
0.8291136674451112	1480357.078502014
0.8293209458619727	1523256.6686485293
0.8295282760984382	1508284.5980037798
0.829735658167463	1467820.3984699538
0.8299430920820048	1566265.1545461065
0.8301505778550254	1591879.754532222
0.8303581154994891	1602550.1713860454
0.8305657050283641	1626623.180624653
0.8307733464546212	1587133.1480564156
0.8309810397912352	1663002.0450451337
0.8311887850511829	1690354.843994203
0.8313965822474458	1656402.9009964298
0.8316044313930077	1712426.9274520609
0.8318123325008561	1722971.3913594196
0.8320202855839813	1721639.5923527922
0.8322282906553774	1755509.5567645377
0.8324363477280413	1743359.1445094352
0.8326444568149735	1818722.3138714428
0.8328526179291771	1839723.6830818627
0.8330608310836596	1822740.4369816643
0.8332690962914304	1802608.3072211528
0.8334774135655034	1837613.0711870228
0.833685782918895	1860502.273320167
0.8338942043646247	1919014.7314441237
0.834102677915716	1867015.8623878234
0.834311203585195	1941641.1053606793
0.8345197813860912	1972064.5209281433
0.8347284113314379	2007450.5327421734
0.8349370934342709	2022383.6501766278
0.8351458277076294	1951352.6882705358
0.8353546141645565	2040761.1296823178
0.8355634528180977	1987344.9395066365
0.8357723436813022	2019261.2331461296
0.8359812867672226	1978993.1930747654
0.8361902820889144	2128266.3779079076
0.8363993296594368	1986489.766232296
0.8366084294918518	2138989.7072702073
0.8368175815992247	2142560.953391434
0.8370267859946247	2130729.4520214377
0.8372360426911234	2217646.207937272
0.8374453517017962	2248298.058525174
0.8376547130397217	2186489.624846237
0.8378641267179816	2176526.9949223204
0.8380735927496613	2295372.667781664
0.8382831111478488	2335556.544256254
0.8384926819256358	2356964.37989488
0.8387023050961173	2329014.646769486
0.8389119806723914	2336458.279024811
0.8391217086675596	2437776.0838343888
0.8393314890947265	2474968.040096751
0.8395413219670003	2468747.952487337
0.8397512072974922	2486692.0335881244
0.8399611450993165	2452262.9460993223
0.8401711353855914	2497481.4846884506
0.8403811781694378	2552819.356879276
0.8405912734639802	2516409.4399153143
0.8408014212823464	2518834.6784535004
0.8410116216376671	2597845.274885297
0.8412218745430766	2653672.7954947776
0.8414321800117124	2689885.216112203
0.8416425380567154	2655641.244969809
0.8418529486912297	2702579.370000638
0.8420634119284025	2610324.424615312
0.8422739277813847	2743144.2043643873
0.8424844962633302	2775203.094932254
0.842695117387396	2840359.229238934
0.8429057911667428	2850066.312792874
0.8431165176145345	2810759.287544348
0.8433272967439382	2885032.4869827228
0.8435381285681244	2885514.064917341
0.8437490131002665	2904317.578918157
0.8439599503535415	2983228.692331895
0.84417094034113	2948159.613352675
0.8443819830762154	2921044.182896821
0.8445930785719846	3031300.0589646343
0.8448042268416277	3064584.2120374464
0.8450154278983382	3074484.75502724
0.8452266817553128	3093896.947773663
0.8454379884257517	3112437.693207188
0.8456493479228583	3046201.4833604647
0.845860760259839	3201498.846968008
0.846072225449904	3263213.754874506
0.8462837435062666	3258494.469966169
0.8464953144421433	3177034.820376419
0.8467069382707537	3251384.3997877724
0.8469186150053215	3342292.2538116476
0.847130344659073	3315825.45467759
0.8473421272452377	3368255.503580773
0.8475539627770492	3377386.1247136523
0.8477658512677435	3405208.8201395795
0.8479777927305605	3463616.1137373103
0.8481897871787432	3486172.228166059
0.848401834625538	3519079.039507471
0.8486139350841944	3527080.4679811844
0.8488260885679657	3514516.0877816803
0.8490382950901076	3533413.392612091
0.8492505546638802	3601500.981954754
0.8494628673025462	3560403.727920147
0.8496752330193721	3647076.4094131645
0.8498876518276269	3608686.343108966
0.8501001237405839	3567265.4557304713
0.8503126487715191	3585668.3872339623
0.850525226933712	3572740.913517776
0.8507378582404455	3514015.0644496283
0.8509505427050057	3387372.6726829372
0.8511632803406821	3247200.2517435784
0.8513760711607672	2895670.720424818
0.8515889151785576	2355531.506950966
0.8518018124073523	1418883.6056292693
0.8520147628604541	358170.38275417604
0.8522277665511693	421045.83568822383
0.8524408234928071	1530286.536510458
0.8526539336986805	2484912.4998484147
0.8528670971821053	3085980.1048675105
0.8530803139564007	3461306.2503097546
0.8532935840348901	3684352.258690713
0.8535069074308987	3903305.22143011
0.8537202841577566	4023796.432863201
0.8539337142287962	4096963.423104107
0.8541471976573534	4164377.2891104696
0.8543607344567677	4274897.126900994
0.8545743246403821	4349696.409266957
0.8547879682215422	4372596.948616599
0.8550016652135977	4435103.389795297
0.8552154156299011	4462188.424017006
0.8554292194838088	4506508.779646926
0.8556430767886797	4527749.597448127
0.855856987557877	4621239.913540544
0.8560709518047664	4676915.599093368
0.8562849695427177	4721864.176983274
0.8564990407851035	4716490.848359572
0.8567131655452999	4787953.777386773
0.8569273438366862	4854297.427784282
0.8571415756726455	4882674.96699574
0.8573558610665638	4900471.283886321
0.8575702000318304	4884258.110932868
0.8577845925818384	4967176.867050267
0.857999038729984	5047686.503561426
0.8582135384896665	5074079.712164044
0.858428091874289	5085834.662429307
0.8586426988972576	5139921.879709138
0.8588573595719821	5162957.71473742
0.8590720739118751	5197728.564396277
0.8592868419303532	5243819.935612743
0.8595016636408359	5296879.535349978
0.8597165390567462	5341252.009810388
0.8599314681915105	5342265.122847722
0.8601464510585584	5366441.992228645
0.860361487671323	5423897.047341157
0.8605765780432408	5455867.9412581315
0.8607917221877518	5475061.71091994
0.8610069201182988	5473117.816334314
0.8612221718483286	5094648.289170405
0.8614374773912907	4049594.741775956
0.8616528367606385	4456535.789023595
0.8618682499698288	4039441.051859299
0.8620837170323213	3999533.827150699
0.8622992379615795	4373706.176586453
0.8625148127710699	4343614.437027226
0.8627304414742627	4005420.4107250385
0.8629461240846313	4958538.82774188
0.8631618606156526	4153839.5882142475
0.8633776510808066	4065891.1346221673
0.8635934954935769	4201538.277995243
0.8638093938674504	4384585.408897924
0.8640253462159173	4544009.788465078
0.8642413525524714	4365450.396232987
0.8644574128906095	4769301.766941294
0.8646735272438323	4830961.966220437
0.8648896956256433	4250065.209698057
0.8651059180495498	5020171.789759808
0.8653221945290621	4689911.134912249
0.8655385250776946	5659960.755190669
0.8657549097089641	5120692.906424538
0.8659713484363913	5115512.353561263
0.8661878412735006	5288143.032233843
0.866404388233819	5368447.06193054
0.8666209893308775	5046686.43537211
0.8668376445782103	6033059.949017557
0.8670543539893549	5407621.22250438
0.8672711175778525	5373339.593384625
0.8674879353572469	5384601.811628143
0.8677048073410862	5762508.537234528
0.8679217335429217	5955551.110556922
0.8681387139763074	5804356.464622653
0.8683557486548015	5307702.379390995
0.8685728375919655	5163186.8564163195
0.8687899808013633	5992993.370069477
0.8690071782965637	6239985.790188302
0.869224430091138	6471482.561044612
0.8694417361986609	6210479.248703192
0.8696590966327107	5273020.308937366
0.869876511406869	5593340.0364681175
0.8700939805347206	6034645.71318586
0.8703115040298544	6184547.828908311
0.870529081905862	5745116.375619897
0.8707467141763385	6153871.520847808
0.8709644008548827	5635856.310148422
0.8711821419550964	5562359.411237272
0.8713999374905854	5646050.437632348
0.871617787474958	6385546.7569286525
0.8718356919218269	6227162.802597019
0.8720536508448075	5667259.311269936
0.8722716642575187	5973086.220399823
0.8724897321735832	5756383.788900904
0.8727078546066265	6551807.346353203
0.8729260315702784	5948957.702183931
0.873144263078171	6371814.74227295
0.8733625491439405	6591078.354363046
0.8735808897812266	5663537.58025158
0.8737992850036719	6248085.079104849
0.874017734824923	6394574.036674278
0.8742362392586293	6853504.275905458
0.874454798318444	6874049.079295917
0.8746734120180236	6902969.427565041
0.8748920803710283	7131502.374788897
0.875110803391121	6625355.13064411
0.8753295810919689	6343921.26485955
0.875548413487242	7275724.530345464
0.8757673005906139	7138526.913054061
0.8759862424157616	7434862.72769863
0.8762052389763657	7465742.039834796
0.8764242902861098	7032427.530462503
0.8766433963586814	7526032.044069352
0.8768625572077712	6650236.077206134
0.8770817728470732	6309342.5700895395
0.8773010432902849	7551366.500284296
0.8775203685511077	7261938.490626545
0.8777397486432454	8394622.422919508
0.8779591835804065	8067918.628574806
0.8781786733763015	7069332.1747475695
0.8783982180446457	7503534.323574779
0.878617817599157	7832565.781498275
0.8788374720535569	6829524.677153209
0.8790571814215703	7380573.050143174
0.8792769457169257	7691721.744463336
0.879496764953355	7608779.515625701
0.8797166391445934	8848935.45702281
0.8799365683043796	8698456.677949699
0.8801565524464557	7679978.510644847
0.8803765915845676	7261257.1919901585
0.8805966857324639	7877504.401713273
0.880816834903897	7135602.468767419
0.881037039112623	8002548.562465201
0.8812572983724012	7940281.135688668
0.8814776126969944	7781868.144808473
0.8816979821001687	8237609.797538794
0.8819184065956938	8995849.550538989
0.8821388861973429	8446840.860801077
0.8823594209188923	7481166.366597461
0.882580010774122	7523090.517340943
0.8828006557768155	7669701.099818192
0.8830213559407598	7328918.152657428
0.8832421112797452	8817779.413704053
0.8834629218075651	7530993.643229762
0.8836837875380171	7409912.481690752
0.8839047084849018	8336730.397796639
0.884125684662023	9176167.878468223
0.8843467160831886	9318706.296099555
0.8845678027622095	9171071.8331791
0.8847889447129001	7141002.022888933
0.8850101419490785	7996240.3674207665
0.8852313944845657	8440923.643085059
0.885452702333187	10066579.055802701
0.8856740655087704	9440843.067359125
0.8858954840251476	7924419.21221585
0.8861169578961539	7994382.458194215
0.886338487135628	9943265.231895616
0.886560071757412	9826087.792380767
0.8867817117753515	9409074.652752016
0.8870034072032955	8653494.750021098
0.8872251580550963	7040004.767192501
0.8874469643446101	7655669.604231465
0.8876688260856963	8163319.467826184
0.8878907432922178	9599645.0103294
0.8881127159780409	10060618.379924068
0.8883347441570356	9571218.238031412
0.8885568278430749	7266133.596658335
0.8887789670500358	9321016.894709226
0.8890011617917983	9861023.33604727
0.8892234120822464	10801364.836882683
0.8894457179352669	10397406.34492732
0.8896680793647509	8773238.118586382
0.8898904963845921	7670421.327333648
0.8901129690086883	9427549.82470366
0.8903354972509405	10776188.211722016
0.8905580811252535	10680013.38185734
0.8907807206455347	10018461.59263346
0.8910034158256963	9318365.48542311
0.8912261666796527	7916557.161956043
0.8914489732213227	9727345.559142454
0.8916718354646282	10378596.159690434
0.8918947534234944	9149111.836338243
0.8921177271118502	8341577.773368908
0.8923407565436284	9376985.136701796
0.8925638417327644	7385140.040225275
0.8927869826931977	8846096.863479404
0.8930101794388711	8615382.881780261
0.8932334319837308	8344399.765933218
0.8934567403417267	8241817.347060637
0.8936801045268123	6342958.6514061615
0.8939035245529441	4619691.448672015
0.8941270004340824	2117779.376061059
0.894350532184191	436180.295835727
0.8945741198172371	2273824.366928044
0.8947977633471915	4805205.5442323135
0.8950214627880284	6899384.048032717
0.8952452181537254	7959823.883808635
0.8954690294582639	7131817.80587953
0.8956928967156286	8492623.479468927
0.8959168199398075	10303959.59400509
0.8961407991447926	11246152.149585927
0.8963648343445789	11032948.128552098
0.896588925553165	9211877.46614857
0.8968130727845534	8866000.956971016
0.8970372760527496	9888964.08738704
0.8972615353717629	10797497.869013054
0.8974858507556059	10373769.349847294
0.8977102222182949	11535913.181173168
0.8979346497738496	12877966.824113466
0.8981591334362931	11644002.196636312
0.8983836732196523	9662192.05765277
0.8986082691379572	11871304.114297133
0.8988329212052417	12237402.72545195
0.8990576294355432	11157973.176109457
0.8992823938429022	11545430.777897311
0.8995072144413631	12507647.990570523
0.8997320912449734	12022976.17395452
0.8999570242677847	11995459.788574532
0.9001820135238516	10556871.00020385
0.9004070590272328	13067955.619674154
0.9006321607919896	13813656.235852614
0.9008573188321878	13864400.700947806
0.9010825331618959	12953128.19942662
0.9013078037951865	12498697.567353623
0.9015331307461353	13038342.193086367
0.9017585140288219	12800740.964053022
0.9019839536573292	14341082.034136714
0.9022094496457435	15783379.125138734
0.9024350020081551	14844974.397959894
0.9026606107586572	15231339.244408382
0.902886275911347	12480151.669315241
0.9031119974803249	12977631.408992952
0.9033377754796951	14072354.790603565
0.903563609923565	15443417.042233929
0.903789500826046	16938789.217817895
0.9040154482012526	17244469.074304864
0.904241452063303	15558694.525601711
0.9044675124263188	14176294.097204277
0.9046936293044254	15147013.257405173
0.9049198027117517	15014336.483244201
0.9051460326624297	16558826.10837802
0.9053723191705955	17385679.68710653
0.9055986622503881	16244312.362932948
0.9058250619159507	16975464.577786766
0.9060515181814298	15032576.409071062
0.9062780310609752	15867402.775927734
0.9065046005687405	16047037.22877583
0.906731226718883	16235009.789053045
0.9069579095255627	17590804.509246763
0.907184649002944	16114444.894142741
0.907411445165195	16374967.57210679
0.9076382980264862	16171307.442796491
0.907865207600993	16879444.011562183
0.9080921739028933	16402916.398784298
0.9083191969463691	14800471.89670422
0.9085462767456058	17732389.817950718
0.9087734133147922	18396780.51552182
0.9090006066681211	16658218.316733675
0.909227856819788	17515625.583027426
0.9094551637839932	17078089.51739248
0.9096825275749393	18064908.1088498
0.9099099482068329	17176740.45831717
0.9101374256938848	17253374.484146323
0.9103649600503083	17328071.625726335
0.9105925512903209	19865477.268640794
0.9108201994281437	15237990.046622891
0.9110479044780008	15715894.064087836
0.9112756664541204	18642395.690842584
0.911503485370734	18317000.96785263
0.9117313612420768	19430181.61735096
0.9119592940823873	17194322.625508916
0.912187283905908	19162479.095885027
0.9124153307268845	20128820.96628065
0.9126434345595664	20334755.262294743
0.9128715954182063	17946830.918777104
0.9130998133170609	15425835.207988422
0.9133280882703902	16687496.371144542
0.913556420292458	19746970.124793362
0.9137848093975312	18124956.219050374
0.9140132555998806	17845311.74491039
0.9142417589137806	20318432.738525685
0.9144703193535092	17912766.930356078
0.9146989369333476	20454168.824055713
