#wavelength	surface flux
0.676892	37562.051012409676
0.678297	39797.85664960396
0.679702	41961.68982070559
0.681109	44072.74968441648
0.682517	45928.28304829478
0.683926	47789.94986713917
0.685337	49500.76126538579
0.686749	50917.79642315539
0.688164	52064.64986726489
0.689581	52852.61911899567
0.691	53006.70089689551
0.692422	51681.367986305275
0.693847	52639.041919928015
0.695274	52708.979340445134
0.696705	52787.77025890176
0.698139	52897.5682071794
0.699576	51935.430448414954
0.701017	50862.17352370123
0.702461	49228.268667981654
0.70391	48562.62819614512
0.705362	46782.41524988364
0.706819	45153.18911175479
0.70828	43623.60950037918
0.709745	41125.39933949992
0.711216	38861.60156926032
0.71269	36753.86444412338
0.71417	34678.286503486546
0.715655	30571.1600230609
0.717145	26689.683302017143
0.71864	23681.436714783176
0.72014	22297.72859867787
0.721647	21068.054212293086
0.723158	20806.885818115374
0.724676	18430.575244807085
0.726199	16177.334474147825
0.727728	13614.561602471294
0.729264	13560.602781881604
0.730805	11868.487095096292
0.732353	11875.947104562481
0.733907	10811.667802603883
0.735468	8952.077415098094
0.737035	8958.561103974724
0.738609	8089.508414130303
0.74019	7343.899058455445
0.741777	6618.263800502152
0.743372	6068.153342161642
0.744973	5449.320297126526
0.746582	4844.016053954575
0.748197	4262.5699880761085
0.74982	3847.9091217356317
0.751451	3405.550812391022
0.753088	3011.931547637007
0.754734	2667.4102923494406
0.756386	2362.191392509821
0.758047	2093.1468678764536
0.759715	1832.3390986232173
0.76139	1529.333533938574
0.763074	1118.8731701361103
0.764765	568.077972447249
0.766464	155.06821572637978
0.768172	353.566860293459
0.769887	242.03804374253184
0.77161	885.9660477030557
0.773341	1674.608184726009
0.775081	2283.9251501639083
0.776829	2825.8601521999904
0.778585	3167.9566309457136
0.780349	3175.2131420006117
0.782121	4740.319621015419
0.783902	5737.605526105973
0.785691	6821.44499405122
0.787489	8199.986058839708
0.789295	9759.27702282249
0.79111	11482.427069045652
0.792933	12246.265036948133
0.794764	9077.54642063219
0.796604	16692.48702098009
0.798453	21315.143455500536
0.80031	25251.854317858342
0.802176	29313.621912867355
0.804051	34671.36369636818
0.805934	39594.22260349855
0.807826	45722.39835153573
0.809727	51737.72991197736
0.811636	57027.21081004723
0.813554	60417.46142946433
0.81548	72027.77287714936
0.817416	86212.59700056666
0.81936	96950.73181897994
0.821313	113187.69855983733
0.823274	123509.35751923925
0.825244	135056.01975623745
0.827223	162656.75249840022
0.829211	175373.31465111513
0.831208	188264.27875587376
0.833213	222648.50171522214
0.835227	243282.47241510992
0.837249	245070.71978517692
0.83928	293418.22375804326
0.841321	332316.5621889406
0.843369	364060.16103214724
0.845427	393295.3785497752
0.847493	458525.42219956196
0.849567	457470.04343870835
0.851651	341101.3393948164
0.853742	535793.4905983604
0.855843	643801.9418760727
0.857952	702139.1755634465
0.86007	766551.0701524445
0.862196	774508.2125207584
0.864331	833613.6133865103
0.866474	929966.7213437505
0.868626	1019271.6088309815
0.870786	1078789.8933162382
0.872955	1174365.904650595
0.875132	1214382.4995139642
0.877317	1331272.8072968796
0.879511	1388819.8246726852
0.881713	1126487.1840011375
0.883923	978287.2066091243
0.886142	1073334.9196413246
0.888369	944968.672168539
0.890604	1055495.873313909
0.892847	843043.8725476103
0.895099	700955.0148889535
0.897358	1234708.2027020724
0.899626	1484836.4415828588
0.901901	1831165.6873393783
0.904185	2439591.2994053927
0.906476	2741816.8383778827
0.908776	2301100.2719034874
0.911083	2666234.900680032
0.913398	2435681.645699885
0.915721	2928291.510570485
0.918051	2823008.055376348
0.92039	3161486.3790623685
0.922736	3030577.1476198486
0.925089	2342132.0569077963
0.927451	1336941.2816828212
0.929819	635766.4200791002
0.932195	490915.4500493304
0.934579	479658.7498139692
0.93697	1840590.5088945758
0.939369	2397433.4812196405
0.941774	1962729.1533605063
0.944187	1594420.0392202216
0.946607	2135929.9264864414
0.949035	2656450.114146899
0.951469	1244887.4696906111
0.953911	1568592.9836986195
0.956359	1381312.3801737681
0.958814	2023615.8737644441
0.961277	1047881.5460246908
0.963746	1624279.2281026102
0.966222	2131918.246338307
0.968705	2701845.6462037857
0.971194	3001370.5249826265
0.97369	2684178.3809238323
0.976193	3600632.4246974676
0.978702	3286732.857002512
0.981217	3229249.351179431
0.983739	2354381.022059369
0.986268	3550691.731701029
0.988802	3852094.8977091815
0.991343	3702248.705487991
0.99389	4810252.428850004
0.996444	5508397.015750854
0.999003	4141337.5107342703
1.00157	5672076.609086673
1.00414	6809992.424645633
1.00672	8151352.06012488
1.0093	7901930.21553287
1.01189	8803767.129695574
1.01448	9761521.672620194
1.01708	10672137.36595227
1.01969	11477452.410678225
1.0223	11829342.591321718
1.02492	12325193.486604692
1.02754	13504757.340770086
1.03017	14718433.72735267
1.0328	14061627.52562161
1.03544	15897527.93267534
1.03808	18446041.15892929
1.04073	17301420.12940445
1.04339	18471079.672333613
1.04604	18899826.627582695
1.04871	19719216.110158853
1.05138	20472402.75664688
1.05405	22654110.536927264
1.05673	22183093.91200645
1.05941	24183317.51412088
1.0621	23962824.238751646
1.06479	24195035.68810515
1.06749	24383534.926614538
1.07019	26099721.62218115
1.07289	25618148.800108694
1.0756	25396444.521723513
1.07832	23578941.284643713
1.08104	24655811.02973165
1.08376	23811239.493251156
1.08649	20427136.801778197
1.08922	13980754.193335496
1.09195	10508842.547926754
1.09469	8118737.137843809
1.09743	6577864.820955945
1.10018	4744063.357786985
1.10293	3201269.5492422897
1.10568	2220125.675095912
1.10844	2640930.16102714
1.1112	1475105.8193270802
1.11396	1247685.928815556
1.11673	818419.789322531
1.1195	1067991.63588109
1.12228	616452.1034181383
1.12505	1223365.9887877302
1.12783	1661904.4946555377
1.13062	1873562.1382848928
1.13341	399073.15914460196
1.1362	604158.7421742695
1.13899	1446391.027910102
1.14178	2268142.4243002976
1.14458	1414987.0267587742
1.14738	1151088.0098168352
1.15019	2196296.7793249483
1.153	1337739.1515537975
1.1558	887649.1522391783
1.15862	1622679.6872270913
1.16143	635875.6258247633
1.16425	414038.8862956956
1.16707	1080078.3484708243
1.16989	1411957.297833125
1.17271	2158694.027078459
1.17554	2566076.169605445
1.17837	1610836.9636713148
1.1812	4516564.201387599
1.18403	5459669.887547663
1.18686	4443375.567709678
1.1897	5862676.436083591
1.19253	6660290.128795009
1.19537	8141856.400289806
1.19822	7644983.025323531
1.20106	8767653.563776694
1.2039	10745671.627005065
1.20675	13439349.189497408
1.2096	14240449.506225504
1.21245	14440538.457629936
1.2153	15796405.225905236
1.21815	14490252.172381239
1.221	16763743.34514479
1.22385	19166986.485373788
1.22671	20310714.45767912
1.22957	24723174.980361085
1.23242	24941198.865419514
1.23528	24433205.53651001
1.23814	26030524.337963898
1.241	27898232.170331888
1.24387	25445260.79190544
1.24673	30861268.338614848
1.24959	28125226.991553713
1.25245	21913264.63471208
1.25532	33675170.786919154
1.25818	35521309.73829997
1.26105	36836212.5013441
1.26392	27394384.24765711
1.26678	30981376.672062606
1.26965	25117917.339539684
1.27252	30971897.945695456
1.27538	32583470.993840337
1.27825	28491835.580324482
1.28112	28134065.942584302
1.28399	20283856.41624982
1.28686	18903320.32204454
1.28973	17972509.48776073
1.2926	17777411.54698814
1.29546	14226248.293184621
1.29833	13048994.3988512
1.3012	16990540.18986065
1.30407	17431380.448268976
1.30694	13456769.297203721
1.30981	13143873.448486226
1.31267	14227697.819125585
1.31554	9909196.653407544
1.31841	8710032.492556347
1.32128	12569046.126687715
1.32414	7194573.295487242
1.32701	3893142.126704029
1.32987	1872406.1821227483
1.33274	1735589.1365306722
1.3356	1242089.4127577047
1.33847	178186.45758926557
1.34133	150832.16899774972
1.34419	209778.0368481846
1.34705	112522.47237528418
1.34991	181641.02757978236
1.35277	152887.49096408897
1.35563	54525.732895262925
1.35849	39412.97397632285
1.36135	64570.675310628576
1.3642	138684.67047392653
1.36706	82617.81977406656
1.36991	67455.66638665658
1.37277	83452.9979633209
1.37562	73964.89347940704
1.37847	61338.753536149154
1.38132	122047.8770814693
1.38417	35226.76361269423
1.38701	9897.390873168004
1.38986	76694.45771420212
1.39271	168696.80729836566
1.39555	61183.56332237706
1.39839	59976.753626557984
1.40123	96314.35850369518
1.40407	87961.15172930951
1.40691	74996.51219683864
1.40974	48629.468171517074
1.41258	121029.33093493829
1.41541	175781.50946220753
1.41824	74039.22203095164
1.42107	20787.149346693517
1.4239	31136.082568943555
1.42673	182332.6170054515
1.42955	327104.78442281624
1.43237	188643.6857558547
1.43519	344016.38568917935
1.43801	342466.3601572433
1.44083	248248.18531669863
1.44365	282351.4482750933
1.44646	255390.84071603004
1.44927	463743.8041755103
1.45208	963993.5640518413
1.45489	684502.4401850578
1.45769	1025684.2628336948
1.4605	767048.7101728802
1.4633	551361.760404776
1.4661	1018749.6064124908
1.4689	887921.751618025
1.47169	666662.8530393436
1.47449	595691.5028091576
1.47728	675900.3984899652
1.48007	599103.024241468
1.48286	748901.4666799671
1.48564	837709.2061984973
1.48842	1019606.6615658137
1.4912	1177037.4120341826
1.49398	581722.9974673215
1.49676	864014.3674345114
1.49953	1183571.3168206043
1.5023	1904121.2447022588
1.50507	2288985.6827134476
1.50784	2005498.8593096
1.51061	2054732.6375116552
1.51337	2035667.4162360877
1.51613	1340162.4344163684
1.51888	1113985.235747851
1.52164	1888403.2842090793
1.52439	2721790.822262105
1.52714	2116022.5848595775
1.52989	2512295.908978189
1.53263	3316311.813761298
1.53538	4076469.4868611344
1.53812	3775134.38562307
1.54086	2548609.644092745
1.54359	2886168.462315313
1.54632	4020575.422953499
1.54905	3886886.280078238
1.55178	3714360.915144704
1.5545	4032453.322398926
1.55723	5587250.022817272
1.55995	6570012.736874179
1.56266	5028698.656854661
1.56538	8710500.31246446
1.56809	11178774.950104449
1.5708	9660365.621714735
1.57351	8793241.247170955
1.57621	9120616.55545167
1.57891	8815519.965146357
1.58161	10904823.196109982
1.5843	10058028.372015107
1.587	9770702.526874837
1.58969	9104953.70809003
1.59238	7640457.0611294415
1.59506	9455909.743136352
1.59774	10239139.72055107
1.60042	8379604.741300322
1.6031	6422697.656102564
1.60577	5831254.877339785
1.60844	4627340.949377577
1.61111	4051425.1683752253
1.61378	3245025.821390227
1.61644	3223629.1941162427
1.6191	2729677.501481318
1.62176	3363415.9325479167
1.62441	3936410.017631065
1.62707	4490347.714371531
1.62971	4874958.122924921
1.63236	3673821.144005118
1.635	5296217.230255797
1.63764	6181621.601831559
1.64028	4603990.817308445
1.64292	3673521.2528753267
1.64555	2406554.46680517
1.64818	1840484.076271884
1.65081	4135718.673899274
1.65343	5214545.093388065
1.65605	2889607.293337433
1.65867	2333486.5519672856
1.66128	4108275.352880774
1.6639	3036236.7726489203
1.66651	621868.6925618616
1.66911	129139.82468838216
1.67172	647011.140384967
1.67432	1488967.7817454508
1.67692	2457813.2538195974
1.67951	1829258.4676216254
1.68211	1091585.463828454
1.6847	645344.1781560008
1.68728	488496.981236603
1.68987	474556.87190801784
1.69245	379296.63269799744
1.69503	339336.26888025604
1.6976	324735.93573058693
1.70018	338239.6910508054
1.70275	212820.94653126376
1.70531	291937.3419668214
1.70788	548505.9788287246
1.71044	1144466.8274402963
1.713	1979239.4031540568
1.71556	2182351.32930423
1.71811	2039168.1803421234
1.72066	1335574.5559266603
1.72321	705559.3077932025
1.72575	1304402.3755693475
1.7283	1772363.0796871083
1.73084	1799403.4344092794
1.73337	968318.2071360806
1.73591	670554.6323097039
1.73844	1058994.3097341408
1.74097	1059571.4592890306
1.74349	1155532.419207494
1.74602	1615138.619129432
1.74854	2095247.9836832196
1.75105	2172228.76542275
1.75357	1595942.6086471626
1.75608	693938.5406816718
1.75859	473372.9641942697
1.7611	426854.95897166437
1.7636	592447.3081317646
1.7661	734751.8526567979
1.7686	637561.3274758441
1.7711	854986.5801294369
1.77359	636675.5756347738
1.77608	380403.0290543047
1.77857	818513.3972896667
1.78105	1203137.623882734
1.78354	755644.6444735011
1.78602	486491.85752853565
1.78849	567590.9725342123
1.79097	493257.320644037
1.79344	413219.24996665824
1.79591	542497.061284334
1.79837	934783.3623185054
1.80084	612080.6738612688
1.8033	415273.74999804056
1.80576	424688.84337519185
1.80821	474056.0681106268
1.81067	497789.2030439556
1.81312	665560.077053001
1.81557	663610.3947421861
1.81801	313301.1468285383
1.82046	260716.6827073446
1.8229	458028.2198011786
1.82533	377419.5095809019
1.82777	252771.04710023725
1.8302	290257.0061707665
1.83263	273487.94395415514
1.83506	198452.37073504887
1.83749	186297.41288140908
1.83991	266176.23892176605
1.84233	438843.4743078674
1.84475	673076.5444519314
1.84716	459775.1392372812
1.84957	426520.3458841373
1.85198	604741.662442857
1.85439	450124.5557206691
1.8568	233367.23815004047
1.8592	129485.8724462401
1.8616	179361.44428538764
1.864	214670.786218884
1.86639	147258.7613746189
1.86878	99084.11764142684
1.87118	175772.48915964976
1.87356	207472.82025946796
1.87595	292045.3239326219
1.87833	740232.9766700054
1.88071	937419.1775582037
1.88309	661498.2219666985
1.88547	566374.3970754527
1.88784	740704.4622516625
1.89021	809947.3063245519
1.89258	992735.3898199807
1.89494	1460712.8806142986
1.89731	1275667.5519040255
1.89967	671667.6386391342
1.90203	574952.9063659569
1.90439	543238.47620794
1.90674	663440.0480186418
1.90909	630976.908148744
1.91144	250337.74329070933
1.91379	211440.35640817307
1.91613	506692.1118491295
1.91848	613035.6180402306
1.92082	365376.5157148964
1.92315	284858.2028810916
1.92549	338323.8141539536
1.92782	321029.14298923354
1.93015	220739.2662371369
1.93248	127810.92058887736
1.93481	117779.93890485966
1.93713	130851.26909479931
1.93945	156195.23763821786
1.94177	321138.8930393882
1.94409	382879.46569553093
1.94641	340922.0733696382
1.94872	316453.7250361384
1.95103	385072.39748294075
1.95334	412023.9133160495
1.95564	357786.6592682925
1.95795	367303.3805416427
1.96025	280625.9931484103
1.96255	235716.35301778445
1.96484	410778.5638597612
1.96714	569752.848966848
1.96943	559618.5518898565
1.97172	621827.2803327609
1.97401	596066.595946824
1.97629	522158.82352972106
1.97858	572088.9494471719
1.98086	466527.6567182317
1.98314	320395.31541481894
1.98541	500753.15336305613
1.98769	811203.0920212353
1.98996	780067.0340843521
1.99223	692131.6362294743
1.9945	917930.6028741859
1.99677	1106758.964914967
1.99903	1131632.1288766128
2.00129	1092952.1295940552
2.00355	976686.6490611052
2.00581	1049744.586223685
2.00806	1270830.578930747
2.01031	1321129.7129786927
2.01256	1493425.786071956
2.01481	1601200.3802304624
2.01706	1386959.5743967984
2.0193	1274584.0731661706
2.02154	1476905.467015248
2.02378	1703752.5341433762
2.02602	1633054.4445530644
2.02825	1457896.235268123
2.03049	1520503.3990841329
2.03272	1794267.6482576956
2.03494	1968065.9360902966
2.03717	1906126.8325232503
2.03939	1934536.199272198
2.04162	2479290.70484363
2.04384	2995775.169983155
2.04605	3136280.821226239
2.04827	2900219.066199899
2.05048	2820377.3562733945
2.05269	2874758.9150020266
2.0549	2566904.095901229
2.05711	2526901.901829562
2.05931	2607377.872281675
2.06151	2864465.9928599577
2.06371	3173768.5744772097
2.06591	3074795.2654216806
2.06811	3036829.7733294507
2.0703	3441053.3388807285
2.07249	3977878.7418607627
2.07468	4210536.773243346
2.07686	4164942.996110176
2.07905	4007436.4759690757
2.08123	3755367.6428916124
2.08341	3687524.597541877
2.08559	3797107.7716002567
2.08776	3970853.8648281703
2.08994	4083464.3385901377
2.09211	3926438.663874721
2.09428	3846778.1311635235
2.09645	3961633.3944808464
2.09861	3803179.0359984017
2.10077	3480064.4376960285
2.10293	3466068.456369577
2.10509	3707243.4216206823
2.10725	3780068.051114854
2.1094	3370108.8530341205
2.11155	2774418.741526661
2.1137	2645581.786157117
2.11585	2795375.090911451
2.11799	3019874.8192236233
2.12013	3299373.6461332464
2.12227	3312451.864817123
2.12441	3234358.8257252444
2.12655	3147754.685963071
2.12868	2998079.2137799338
2.13081	2911387.030181865
2.13294	2771851.48879784
2.13507	2447398.3628266356
2.13719	2238622.00190193
2.13931	2449771.845963122
2.14143	2597634.0328592923
2.14355	2283659.668747354
2.14567	1883380.9549065582
2.14778	1573742.3592781317
2.14989	1431371.4025176205
2.152	1517655.3708988898
2.1541	1560714.1730902952
2.15621	1483024.1600784939
2.15831	1291414.8716178348
2.16041	916950.811316471
2.16251	673540.3040517061
2.1646	714784.4876012086
2.1667	822683.4987056027
2.16879	972073.3438482773
2.17087	1178167.4119337206
2.17296	1241950.1189226941
2.17504	1251129.9941710804
2.17713	1312741.2557449604
2.1792	1228120.3457013806
2.18128	978551.4013999004
2.18336	729191.1362987695
2.18543	650542.550211215
2.1875	635350.7489155419
2.18957	531398.7944955501
2.19163	431738.0115432452
2.1937	416639.9143197997
2.19576	370587.89088209637
2.19782	238231.16163387668
2.19987	109988.34177251284
2.20193	64545.170644046535
2.20398	73265.75346083821
2.20603	84382.18260174271
2.20808	92981.6378271019
2.21012	94995.86373043808
2.21217	97546.6177721791
2.21421	128185.11896949865
2.21625	156604.17677970385
2.21828	150847.43557162205
2.22032	139970.26432020066
2.22235	150171.99858297463
2.22438	168865.27320655662
2.22641	157706.7095713531
2.22843	135241.4772717798
2.23046	108867.79174402937
2.23248	73973.0469229236
2.2345	50218.246173157495
2.23651	39350.48302587965
2.23853	40374.75876015184
2.24054	58280.66727977533
2.24255	80721.27179846144
2.24456	93943.65022062241
2.24657	93142.57893667095
2.24857	80954.04937049016
2.25057	63236.09692141444
2.25257	43552.422122138436
2.25457	29654.090696413965
2.25656	27381.16740174546
2.25856	32662.172543385663
2.26055	34570.65524417879
2.26254	32803.45363261299
2.26453	37469.211115817714
2.26651	47058.15983252774
2.2685	47233.345915117796
2.27048	41912.91594873075
2.27246	47643.61584443871
2.27443	51993.519590980846
2.27641	52320.365784604044
2.27838	58782.79391231808
2.28036	62123.295215496626
2.28233	54684.33547045725
2.28429	45336.02506733111
2.28626	37255.39916650361
2.28823	28767.629963588923
2.29019	20266.78767606992
2.29215	15058.65143744256
2.29411	17088.629853514987
2.29607	24417.630470243716
2.29802	33292.5498527503
2.29998	45668.36105414919
2.30193	65910.32353306387
2.30388	85316.98861175368
2.30583	93926.5182172647
2.30778	103973.22618874094
2.30972	134137.23635164194
2.31167	173293.18464051763
2.31361	167726.4482087474
2.31555	112148.2449796467
2.31749	47684.7126132351
2.31943	21996.20277400079
2.32137	17681.80990693465
2.32331	17613.047048083437
2.32524	16176.268472020849
2.32718	14112.361737413945
2.32911	11619.989901471976
2.33104	9787.998560976117
2.33297	13548.898763627965
2.3349	26914.134068760744
2.33683	43483.39106447882
2.33876	49203.54523444982
2.34068	45303.86716015215
2.34261	39858.32188492452
2.34453	38278.23942491002
2.34646	44415.865884568906
2.34838	58288.54392935328
2.3503	66440.89885630604
2.35223	68839.84126011774
2.35415	64581.811853347004
2.35607	58367.94151853682
2.35799	66299.15641523611
2.35991	84121.76319734007
2.36183	98976.52786521085
2.36375	104518.26522495915
2.36566	100835.9882185985
2.36758	79948.03178435605
2.3695	59808.85851065229
2.37142	53066.81396385537
2.37334	56778.756845528354
2.37526	54488.82490649643
2.37718	47184.12811763883
2.3791	42574.298427906055
2.38101	42791.13906724327
2.38293	47729.12660861997
2.38485	56259.90831503809
2.38677	72669.28857648923
2.3887	87788.21642111994
2.39062	89195.04544754993
2.39254	85462.02420450021
2.39446	88904.12869239629
2.39639	97185.35353424335
2.39831	106249.70986382922
2.40024	129714.44205532588
2.40216	154649.6963523525
2.40409	174815.17390125897
2.40602	161567.04424116833
2.40795	132387.8326738453
2.40989	124979.72869231968
2.41182	151667.57319826222
2.41376	176677.08002988482
2.4157	201683.04953865125
2.41764	215245.03457683173
2.41958	208798.81564039516
2.42152	184359.99964159858
2.42347	166387.31249547412
2.42542	172859.78446845358
