#wavelength	surface flux
0.676892	61512.750955470554
0.678297	65483.4491516731
0.679702	69320.23789708813
0.681109	73065.70751404685
0.682517	76445.57555055476
0.683926	79829.7187058453
0.685337	82999.17828703247
0.686749	85650.52390953076
0.688164	87861.44550834731
0.689581	89432.24643561558
0.691	89744.90180154576
0.692422	88557.28623877984
0.693847	89889.84107607475
0.695274	90676.48616333275
0.696705	90940.56588154777
0.698139	91672.6313612214
0.699576	90469.05226034958
0.701017	88948.07272849116
0.702461	86563.44222246528
0.70391	85506.67359127088
0.705362	82633.29479551107
0.706819	79884.21402817179
0.70828	77459.7387364078
0.709745	73385.13292908187
0.711216	69383.2985413911
0.71269	66028.1175030059
0.71417	62386.55795821252
0.715655	54884.36065266537
0.717145	48639.506092535434
0.71864	43032.953062618675
0.72014	40445.43694616851
0.721647	38350.41440069305
0.723158	38233.51776173031
0.724676	33804.23686348183
0.726199	29871.529908921275
0.727728	25073.284636527722
0.729264	25023.378649203005
0.730805	21911.143847324896
0.732353	21544.41916379111
0.733907	19365.70655600689
0.735468	15757.416351761083
0.737035	15720.845960962464
0.738609	14080.321577967212
0.74019	12592.43195912435
0.741777	11161.770685489402
0.743372	10037.501547449214
0.744973	8829.060375927702
0.746582	7682.3699893875755
0.748197	6603.927957991536
0.74982	5845.598666863671
0.751451	5060.764292049331
0.753088	4380.655389401606
0.754734	3787.059186034153
0.756386	3246.7636967196804
0.758047	2742.225373265918
0.759715	2233.0431428659663
0.76139	1694.394963459793
0.763074	1150.8409882590734
0.764765	595.0343888330018
0.766464	169.0647900088467
0.768172	384.27661788260406
0.769887	262.512699024461
0.77161	913.2601745685075
0.773341	1770.8926577428042
0.775081	2654.7882449887456
0.776829	3567.876923760854
0.778585	4163.43230142567
0.780349	4180.5239814630295
0.782121	6708.051235406012
0.783902	8298.73629011041
0.785691	10063.087348202322
0.787489	12352.640125275691
0.789295	15007.573935979486
0.79111	17944.547370221215
0.792933	19276.22420930932
0.794764	13819.253595783715
0.796604	27076.994321112787
0.798453	35270.836226846
0.80031	42413.15713344936
0.802176	49779.08387647619
0.804051	59244.12516457334
0.805934	68068.73718635243
0.807826	78802.74019757388
0.809727	89565.57784960332
0.811636	99502.550104572
0.813554	107459.47096354936
0.81548	125458.12101899808
0.817416	149059.30871100066
0.81936	163243.78497570063
0.821313	194124.7598049065
0.823274	216461.25936452794
0.825244	232264.40704289096
0.827223	278380.5840927276
0.829211	295952.5847622522
0.831208	320161.03438704886
0.833213	380477.6056886949
0.835227	412769.49153699895
0.837249	405458.8611736008
0.83928	487914.8911320815
0.841321	555927.6009988558
0.843369	601625.4475721713
0.845427	647097.6438614794
0.847493	752007.3219910566
0.849567	732603.2720191895
0.851651	543541.4833033897
0.853742	861915.6515833227
0.855843	1030960.6416032568
0.857952	1122564.0626815336
0.86007	1220759.5735086268
0.862196	1171862.2954830267
0.864331	1262364.2667097894
0.866474	1415752.7579285013
0.868626	1537498.4923604806
0.870786	1589548.2104571539
0.872955	1729365.6468428816
0.875132	1742890.520107589
0.877317	1997160.2499402983
0.879511	2077819.4508808563
0.881713	1666659.5090003419
0.883923	1463520.9476452253
0.886142	1633650.468047913
0.888369	1431131.443274852
0.890604	1618344.0123004934
0.892847	1310172.1941749835
0.895099	1089214.253585613
0.897358	1936117.886858517
0.899626	2304903.33138651
0.901901	2740739.90084191
0.904185	3607901.415141532
0.906476	3977054.797966737
0.908776	3339309.116949482
0.911083	3951218.7059955574
0.913398	3666763.6028826423
0.915721	4410339.939110382
0.918051	4326158.529046958
0.92039	4758284.099160667
0.922736	4502416.167325638
0.925089	3657038.212619075
0.927451	2344004.8437851253
0.929819	1255784.338113605
0.932195	876096.2400949964
0.934579	800517.9481730567
0.93697	3083233.899772111
0.939369	3859033.193042559
0.941774	3049799.6442939956
0.944187	2612741.624647427
0.946607	3651018.832592288
0.949035	4391890.522358034
0.951469	2030168.1012777628
0.953911	2717014.717526235
0.956359	2508717.8864978086
0.958814	3552661.2177793174
0.961277	1973021.77474596
0.963746	2569803.0185031146
0.966222	3565720.2249261476
0.968705	4204453.166289129
0.971194	4649671.421119117
0.97369	4118379.975998934
0.976193	5598715.332852169
0.978702	5127029.770794078
0.981217	4902336.84158497
0.983739	3519457.3575949077
0.986268	5286491.95761707
0.988802	5850903.637791947
0.991343	5228756.884532859
0.99389	7086313.3447297495
0.996444	7999477.169550211
0.999003	5000061.007075698
1.00157	6889323.626237427
1.00414	8321036.254756012
1.00672	9997650.587465357
1.0093	9584063.455289153
1.01189	10816369.169917535
1.01448	12352907.417049563
1.01708	13449054.425407961
1.01969	15037676.877231617
1.0223	15299875.162531286
1.02492	15632192.605942985
1.02754	17179731.408148274
1.03017	19530223.646968003
1.0328	18425278.038556237
1.03544	20720024.4552896
1.03808	24912277.73436014
1.04073	22965164.42833864
1.04339	24436846.671818268
1.04604	24198247.057232242
1.04871	25585656.703028433
1.05138	26652065.37524337
1.05405	29989336.749672886
1.05673	28455497.719056427
1.05941	32246448.977023657
1.0621	30892784.584216543
1.06479	32281294.943392914
1.06749	32874550.922074284
1.07019	36282256.52426247
1.07289	34946744.66272199
1.0756	34732542.41765394
1.07832	32551912.219317157
1.08104	34069362.4616126
1.08376	31964695.12465523
1.08649	28431258.857131902
1.08922	19579196.13732886
1.09195	14276330.196252786
1.09469	11315948.9427245
1.09743	9114022.096432762
1.10018	7487211.472812262
1.10293	5283340.857153108
1.10568	3827472.321142244
1.10844	4469718.203982617
1.1112	2789849.9017756367
1.11396	2311662.828926993
1.11673	1435488.6392822508
1.1195	2037639.4260545853
1.12228	1237210.3508555351
1.12505	2034480.6728982965
1.12783	2864346.0688230363
1.13062	3289755.7145304037
1.13341	721663.3751258801
1.1362	1060956.6366386986
1.13899	2161053.64449827
1.14178	3545120.3654864104
1.14458	2386639.5980776697
1.14738	2077084.7726762625
1.15019	3767004.9522953033
1.153	2429440.1982050827
1.1558	1511633.967600192
1.15862	2823033.176014307
1.16143	1164876.061578604
1.16425	683405.3716701705
1.16707	1896286.6609713067
1.16989	2261185.015609707
1.17271	3410349.6471716883
1.17554	3872169.1460471437
1.17837	2378244.1474091294
1.1812	6604245.588740354
1.18403	8355796.228033907
1.18686	6489184.209170153
1.1897	8293789.968433901
1.19253	9568702.728055123
1.19537	12000522.48706154
1.19822	9993225.153654372
1.20106	11054165.422634454
1.2039	14160770.32534167
1.20675	17900227.463331312
1.2096	20325776.397142015
1.21245	20273816.52944289
1.2153	21504307.90824483
1.21815	20109949.378272295
1.221	22412649.94924315
1.22385	25901582.00400341
1.22671	26890231.473226234
1.22957	32632145.182138696
1.23242	32824509.867283545
1.23528	30963394.592802588
1.23814	34029664.052542
1.241	37490345.98339922
1.24387	32995774.98054473
1.24673	41001369.65894069
1.24959	37035661.949982956
1.25245	27342654.843848977
1.25532	44659372.12066479
1.25818	46927770.98624264
1.26105	48874520.48944276
1.26392	33684786.54129435
1.26678	40355899.16557634
1.26965	31682104.155670524
1.27252	41643138.97313376
1.27538	44486842.278739996
1.27825	38279789.511767
1.28112	39654022.19082083
1.28399	29197607.93462176
1.28686	27974986.612283755
1.28973	26338365.431395292
1.2926	26204626.16261197
1.29546	21446568.91903493
1.29833	18911879.062155012
1.3012	25988654.83572641
1.30407	26427390.161113724
1.30694	19969438.917168114
1.30981	19552328.896535717
1.31267	22173064.29261426
1.31554	15643271.124165628
1.31841	13875692.107445523
1.32128	17803467.516200557
1.32414	10471153.758627538
1.32701	5503619.700961559
1.32987	2988478.4937852053
1.33274	2847162.71038698
1.3356	2032863.1024860623
1.33847	351151.9309343255
1.34133	291865.05983232637
1.34419	364748.45225499145
1.34705	230890.0505701006
1.34991	414673.7242415077
1.35277	356455.2542493174
1.35563	126813.94090052188
1.35849	98040.38562127991
1.36135	151099.71396212344
1.3642	316252.6900513358
1.36706	195461.34213425912
1.36991	147356.35795719016
1.37277	198385.1206965672
1.37562	123085.19947587299
1.37847	107242.07687164836
1.38132	307669.1700733741
1.38417	92206.58123923604
1.38701	19323.884948342245
1.38986	153792.45376896905
1.39271	315307.50766470336
1.39555	119810.16569219052
1.39839	143953.4308207196
1.40123	238324.60934622854
1.40407	189251.09101969
1.40691	146153.06411794314
1.40974	103526.05961649028
1.41258	266613.75348943693
1.41541	352176.47988573817
1.41824	147579.2546198764
1.42107	40623.99749296317
1.4239	58502.42120158029
1.42673	356154.7630375236
1.42955	603797.2539644635
1.43237	336498.4118868854
1.43519	659217.0879908901
1.43801	677278.9181410979
1.44083	463011.28234877496
1.44365	500361.8585254259
1.44646	441223.2615061596
1.44927	764060.2018262917
1.45208	1634850.3566648376
1.45489	1265349.1886007418
1.45769	1900734.939441736
1.4605	1413385.9854155518
1.4633	938002.7340380742
1.4661	1658148.5265306141
1.4689	1437200.8949003392
1.47169	1115155.587132232
1.47449	1134957.319054427
1.47728	1347438.1782215904
1.48007	1226434.9331370373
1.48286	1277744.6781878176
1.48564	1394876.4170320865
1.48842	1789900.3867231968
1.4912	2199542.1663541757
1.49398	1076970.7652614005
1.49676	1596482.1459882862
1.49953	2116413.242201208
1.5023	3590523.5882104626
1.50507	4155698.2498148377
1.50784	3392315.25161301
1.51061	3776384.2712222757
1.51337	4084736.3948479504
1.51613	2555250.016411405
1.51888	2014870.965490194
1.52164	3346595.0211320985
1.52439	4543436.010767145
1.52714	3344805.5005434128
1.52989	3778836.4444953925
1.53263	5205317.639135528
1.53538	6477282.894384684
1.53812	5229827.969533532
1.54086	3708429.0864729243
1.54359	3990939.1217697114
1.54632	6193269.635953158
1.54905	6349089.387692202
1.55178	5913669.828777332
1.5545	5692008.508900582
1.55723	7973205.139886879
1.55995	9047238.955034764
1.56266	7047472.21200042
1.56538	11665966.332116416
1.56809	14763283.78864311
1.5708	12413159.742462391
1.57351	11977521.570537606
1.57621	11664665.849000763
1.57891	11268878.387776563
1.58161	14373372.240073472
1.5843	12899926.777285235
1.587	12513147.649876755
1.58969	12064338.747009458
1.59238	10118412.170119762
1.59506	12702572.13113462
1.59774	13777249.048673725
1.60042	10853621.605498761
1.6031	8507677.32131451
1.60577	7841169.581565509
1.60844	6143821.997148619
1.61111	5717829.80777958
1.61378	4841823.375044493
1.61644	5114800.404447227
1.6191	4320808.690341132
1.62176	5089181.923280272
1.62441	6083454.292098474
1.62707	7366096.254256105
1.62971	7856871.408795132
1.63236	6210745.185990355
1.635	9089058.315948622
1.63764	10213732.226949895
1.64028	7072683.139073592
1.64292	5605262.224677586
1.64555	3649702.4455749653
1.64818	2865628.0111286147
1.65081	6585025.719774389
1.65343	8260908.979023402
1.65605	4609087.223190724
1.65867	3567554.2232120135
1.66128	6334033.548004273
1.6639	4581058.085806085
1.66651	967311.6198151109
1.66911	175263.63534102612
1.67172	883928.2896407704
1.67432	2122666.911978879
1.67692	3750474.820591474
1.67951	2966959.4827939384
1.68211	1805649.4985223736
1.6847	1023152.2330857081
1.68728	749798.0172647203
1.68987	756514.6574708226
1.69245	649347.5256540703
1.69503	485084.3553696065
1.6976	522028.8256497573
1.70018	590082.1910462051
1.70275	343042.3069406608
1.70531	490675.0964368673
1.70788	867410.5504192298
1.71044	1753091.2239656455
1.713	3096688.5746084275
1.71556	3453254.02737301
1.71811	3213474.387588129
1.72066	2000859.8820263254
1.72321	1094258.9446221038
1.72575	2031177.8319736847
1.7283	2855971.3564683036
1.73084	2928364.594201582
1.73337	1497521.4523336496
1.73591	969894.8951911028
1.73844	1481638.0407710888
1.74097	1435912.644025022
1.74349	1630431.639996216
1.74602	2339899.310759471
1.74854	2943347.9826787747
1.75105	3141684.5752763455
1.75357	2363117.973612348
1.75608	1105027.2667572412
1.75859	722675.7115039397
1.7611	616174.416776867
1.7636	944052.5292490952
1.7661	1170541.7791125153
1.7686	1020228.4958722519
1.7711	1399124.0907992513
1.77359	989546.0620035883
1.77608	569173.3372977388
1.77857	1383508.683114408
1.78105	2059940.3645528187
1.78354	1288047.1430735043
1.78602	852438.67451946
1.78849	953584.7238137926
1.79097	838222.4575140786
1.79344	746441.7320855417
1.79591	920664.6957824631
1.79837	1559905.1094139358
1.80084	1072980.254341415
1.8033	809185.2356235748
1.80576	822513.7647367853
1.80821	927184.074686067
1.81067	962558.0337941969
1.81312	1243895.2807513247
1.81557	1228774.8432722685
1.81801	535304.4642802782
1.82046	482497.28367308964
1.8229	875888.6263746588
1.82533	708192.1699604713
1.82777	524041.05896909494
1.8302	633818.5762365379
1.83263	572491.8767715929
1.83506	392194.3644177415
1.83749	386411.5222518697
1.83991	563034.4505368334
1.84233	846430.3903014597
1.84475	1189348.903319888
1.84716	829913.1139150616
1.84957	731702.6028615235
1.85198	947425.8020565686
1.85439	763899.264361607
1.8568	441936.20806225215
1.8592	252695.78496014842
1.8616	352601.3158733337
1.864	416996.8786816302
1.86639	280211.311364296
1.86878	209756.73664796338
1.87118	398475.838959373
1.87356	448541.1140300642
1.87595	550857.5655040691
1.87833	1327217.0905878085
1.88071	1694771.3658539178
1.88309	1199041.235705124
1.88547	1030716.4014600831
1.88784	1331928.2789674446
1.89021	1466465.3073540141
1.89258	1807400.6755469376
1.89494	2644441.742528794
1.89731	2324195.6482547717
1.89967	1235771.729381102
1.90203	1061736.4958723418
1.90439	1074258.7261608564
1.90674	1354455.4957840424
1.90909	1311531.8213338647
1.91144	562874.9563408353
1.91379	503534.48874261475
1.91613	1112032.9762825686
1.91848	1343453.902402915
1.92082	840900.9426523003
1.92315	660510.8267440035
1.92549	791179.8921803598
1.92782	754211.0599282116
1.93015	506576.52015743946
1.93248	272845.58318272233
1.93481	217887.68440261952
1.93713	233849.20432876324
1.93945	300670.51593067154
1.94177	644317.5633533383
1.94409	815171.8337839246
1.94641	803413.2115769903
1.94872	811520.374231222
1.95103	987497.59650625
1.95334	999454.2888175176
1.95564	795455.8485968035
1.95795	764180.2216962309
1.96025	563585.754593089
1.96255	467947.1709908242
1.96484	818464.7306916428
1.96714	1121939.895808305
1.96943	1101428.0023519006
1.97172	1254737.2452156646
1.97401	1221949.5071014508
1.97629	1058536.4359995907
1.97858	1142342.37740104
1.98086	955717.4397679428
1.98314	674178.2327180362
1.98541	974117.153080967
1.98769	1589314.8776525094
1.98996	1596335.0402624072
1.99223	1409744.8643706364
1.9945	1762204.5631267235
1.99677	2020440.8610316985
1.99903	1978864.4867304112
2.00129	1908810.7429386638
2.00355	1806781.4333560194
2.00581	1956227.7132121916
2.00806	2278026.8037454365
2.01031	2449521.665704677
2.01256	2941164.4826209904
2.01481	3221397.847077097
2.01706	2781099.379988384
2.0193	2559564.4060558937
2.02154	2920649.194032639
2.02378	3232879.8734864793
2.02602	3033025.1340022995
2.02825	2780403.3736146884
2.03049	2924670.450401637
2.03272	3423580.695332257
2.03494	3750345.3398994915
2.03717	3631048.824407745
2.03939	3617454.9621381136
2.04162	4547943.917918338
2.04384	5478435.004659127
2.04605	5601480.745595893
2.04827	5089987.507962143
2.05048	5009223.008614658
2.05269	5087478.091532747
2.0549	4491016.845532728
2.05711	4517991.079912998
2.05931	4716013.622606108
2.06151	4957549.28829463
2.06371	5215997.168036821
2.06591	4922920.633194606
2.06811	4980332.530110169
2.0703	5719897.807612004
2.07249	6553836.78560044
2.07468	6900659.202756369
2.07686	6656770.651775389
2.07905	6328062.560655911
2.08123	6086821.662339518
2.08341	6005325.521034225
2.08559	6007784.2627224885
2.08776	6273742.167281081
2.08994	6568322.3162012175
2.09211	6425709.233143597
2.09428	6475607.718116258
2.09645	6729272.00426134
2.09861	6338200.9480772205
2.10077	5684139.185558132
2.10293	5548059.565673363
2.10509	5809590.565669916
2.10725	5867990.547703862
2.1094	5148694.151023629
2.11155	4128144.953491647
2.1137	3959594.9113633833
2.11585	4223052.037510627
2.11799	4611885.066724481
2.12013	5138182.247451793
2.12227	5202367.195210559
2.12441	5111839.407131552
2.12655	4980637.619417702
2.12868	4686662.7008271525
2.13081	4531184.608787033
2.13294	4301978.101505731
2.13507	3708461.4749919693
2.13719	3290486.4640036165
2.13931	3619984.544478143
2.14143	3911031.3518710406
2.14355	3468323.5417644177
2.14567	2895951.1614534683
2.14778	2395720.971690229
2.14989	2106906.3563499167
2.152	2245048.2553294026
2.1541	2364757.0536888647
2.15621	2288960.6822368316
2.15831	2003280.940018008
2.16041	1407562.9002329204
2.16251	1038877.9974577038
2.1646	1099237.9193061385
2.1667	1219813.0169664747
2.16879	1437046.1480812312
2.17087	1786464.0315182742
2.17296	1892948.5132703718
2.17504	1882903.271634549
2.17713	1959635.9896837831
2.1792	1857332.9018738868
2.18128	1517320.3236866114
2.18336	1097625.9110232496
2.18543	886226.1063096055
2.1875	827233.2643640187
2.18957	708264.4202039425
2.19163	619508.1861163885
2.1937	651966.5428375067
2.19576	595544.307139215
2.19782	374277.42532777553
2.19987	171125.01934092012
2.20193	102883.44668861695
2.20398	112346.81420020564
2.20603	120363.08615181876
2.20808	127781.7386010777
2.21012	135840.66404617584
2.21217	147835.93547799616
2.21421	193039.6113168258
2.21625	230359.00761271472
2.21828	222662.31232521805
2.22032	217188.56346920456
2.22235	234640.59210400935
2.22438	252370.5609608126
2.22641	242446.6313889613
2.22843	240444.4550098859
2.23046	215468.1572769849
2.23248	143266.6852051032
2.2345	83267.72197627513
2.23651	59075.86026880976
2.23853	61649.90935636326
2.24054	89761.45039400141
2.24255	125694.60595643776
2.24456	150818.70170434384
2.24657	157328.97255346086
2.24857	145585.68378662193
2.25057	118354.6448511163
2.25257	81625.56773787046
2.25457	53970.253465606176
2.25656	46741.43189606119
2.25856	51154.45915600564
2.26055	52024.23795837742
2.26254	48291.144315841026
2.26453	53906.62356776174
2.26651	68378.65020013644
2.2685	71876.97127818016
2.27048	66488.1354938038
2.27246	71527.86479206504
2.27443	73506.3648802697
2.27641	73647.23579206363
2.27838	84336.21742835923
2.28036	91009.56683804153
2.28233	83769.89979323355
2.28429	70788.72006290237
2.28626	57629.36208757816
2.28823	43736.99536456392
2.29019	30382.217469485375
2.29215	21911.81702924467
2.29411	24318.066787283416
2.29607	34887.44766831472
2.29802	48843.57472747692
2.29998	69733.86844507986
2.30193	102323.08430920499
2.30388	131030.87863382303
2.30583	142851.58222109734
2.30778	157250.0284026861
2.30972	194186.16034697904
2.31167	238707.9712865953
2.31361	226758.7173751317
2.31555	154029.6498464737
2.31749	69832.94322302182
2.31943	35362.711639944464
2.32137	27952.95086293589
2.32331	26184.087786159314
2.32524	23938.456503800284
2.32718	21687.201745278446
2.32911	19070.698574413833
2.33104	17260.60975512769
2.33297	22023.88362714558
2.3349	38906.82379858781
2.33683	61502.91028324482
2.33876	70866.8507790398
2.34068	67344.49713072619
2.34261	61273.75486591644
2.34453	61006.76203222247
2.34646	71646.09218841835
2.34838	91605.74065528276
2.3503	102005.37506473034
2.35223	104213.6483293491
2.35415	96959.12057297284
2.35607	84129.1347605352
2.35799	87524.00295468222
2.35991	108303.8784420336
2.36183	132650.4004609161
2.36375	147433.95779513996
2.36566	146066.6948615428
2.36758	119971.20678129826
2.3695	96089.945398383
2.37142	91066.07629101242
2.37334	96346.19070561287
2.37526	87279.02871450454
2.37718	70224.41149485331
2.3791	59147.501781749
2.38101	56710.73684168293
2.38293	62770.50815972616
2.38485	77779.76942814216
2.38677	105393.0690842696
2.3887	126881.82040146478
2.39062	123690.17661558576
2.39254	114185.52314680035
2.39446	121654.78577984749
2.39639	139517.21788111102
2.39831	156899.24721108816
2.40024	187675.93813375314
2.40216	219532.15339579288
2.40409	249084.04561041496
2.40602	235231.25577885308
2.40795	196149.99721008065
2.40989	182227.1432185713
2.41182	213854.6525851196
2.41376	248536.22498940054
2.4157	293311.39858478185
2.41764	318326.36161787086
2.41958	302942.21189745574
2.42152	255666.25989839464
2.42347	226440.24745003562
2.42542	243803.63661937465
2.42737	317198.478217131
