#wavelength	surface flux
0.676892	50793.07853056629
0.678297	54143.10159754906
0.679702	57353.270089766265
0.681109	60556.85611719202
0.682517	63326.12867151174
0.683926	66289.18664530986
0.685337	69136.26305200206
0.686749	71331.46376399307
0.688164	73050.2445519721
0.689581	74030.9262680535
0.691	74314.48352406261
0.692422	72998.31385017038
0.693847	74024.79890285172
0.695274	74381.64829737015
0.696705	74399.53603946036
0.698139	76189.94415383748
0.699576	75275.92845072078
0.701017	74260.63176640375
0.702461	72379.46869947182
0.70391	71810.1678963443
0.705362	69257.97376274805
0.706819	66706.83830186343
0.70828	65443.82210109488
0.709745	61760.57927597243
0.711216	57770.181871409426
0.71269	55674.18356638542
0.71417	52898.46232738753
0.715655	44588.06624823948
0.717145	39439.02985762544
0.71864	34238.40451291851
0.72014	30519.984590444525
0.721647	29570.32012717747
0.723158	32028.373697698436
0.724676	27365.758603484304
0.726199	24675.16276272175
0.727728	21011.47367671708
0.729264	21422.230197774188
0.730805	19104.699871143588
0.732353	18993.76552855174
0.733907	17013.382873609848
0.735468	13172.090226238643
0.737035	14082.214298640918
0.738609	12914.626798210415
0.74019	11681.59219322102
0.741777	10467.848569073703
0.743372	9578.227520885133
0.744973	8472.083285937584
0.746582	7344.496355769826
0.748197	6217.63991522187
0.74982	5590.217410231323
0.751451	4779.9649935196585
0.753088	4082.4154232692695
0.754734	3463.503836373186
0.756386	2885.3270935005676
0.758047	2367.953885780209
0.759715	1887.4845804049337
0.76139	1414.029036382043
0.763074	926.9259091061124
0.764765	428.23483166550164
0.766464	109.1140431623462
0.768172	256.56654575686514
0.769887	174.38797838599098
0.77161	695.1413560111127
0.773341	1464.5787738228466
0.775081	2233.613546740643
0.776829	3051.6604752119856
0.778585	3632.9564260029115
0.780349	3706.0599763698733
0.782121	6163.685845948692
0.783902	7696.07039546686
0.785691	9363.38216171222
0.787489	11744.174846396509
0.789295	14472.997187577104
0.79111	17301.864115155113
0.792933	18512.461667867665
0.794764	13049.422562086156
0.796604	25498.44091332652
0.798453	32862.013844961744
0.80031	39842.2199022837
0.802176	46553.5423833155
0.804051	55606.80047966188
0.805934	62915.53860160596
0.807826	72293.40449321862
0.809727	80756.42630595465
0.811636	88438.26083365144
0.813554	96122.33135492438
0.81548	107403.38446478211
0.817416	128189.9248741095
0.81936	143328.6610077661
0.821313	167074.11696121522
0.823274	190993.37263791985
0.825244	190698.6153308392
0.827223	239618.4113069049
0.829211	243490.96057097754
0.831208	273241.5386483041
0.833213	327634.47929664573
0.835227	354533.9324915455
0.837249	328118.05101366644
0.83928	400352.5971739507
0.841321	467739.2441194372
0.843369	489122.79144976486
0.845427	522189.8320102592
0.847493	627920.3875529694
0.849567	583801.4793449609
0.851651	450463.3187292269
0.853742	716520.5489376606
0.855843	828918.208315695
0.857952	896229.2707240263
0.86007	989243.3578161995
0.862196	921588.0953187795
0.864331	993233.5422099468
0.866474	1145362.1323070435
0.868626	1256596.1756458445
0.870786	1266254.120969305
0.872955	1430725.906016807
0.875132	1401946.8770973484
0.877317	1592319.0367616294
0.879511	1636761.1250928184
0.881713	1112159.7212366078
0.883923	821816.2310754738
0.886142	967378.6644755342
0.888369	774869.788096271
0.890604	914877.3019467046
0.892847	792465.2233282211
0.895099	629383.3317000408
0.897358	1238504.8100692213
0.899626	1483247.229948063
0.901901	1780992.1343397496
0.904185	2525232.768758215
0.906476	3023238.8646650347
0.908776	2653791.930894956
0.911083	3201200.912409514
0.913398	2802116.7722758683
0.915721	3409140.256946192
0.918051	3430818.1965676593
0.92039	3451287.596735701
0.922736	3286620.6019301643
0.925089	2683271.6417838275
0.927451	1821780.272857424
0.929819	1009515.5449190199
0.932195	569918.7885668891
0.934579	457035.632226715
0.93697	2229709.1814443283
0.939369	2826784.6947099073
0.941774	1910333.1861666264
0.944187	1727480.9173114565
0.946607	2697835.7496522884
0.949035	3055944.1590181086
0.951469	1301267.5790053275
0.953911	1881122.7712270264
0.956359	1994435.8972913488
0.958814	2723790.3006739942
0.961277	1441034.9856876777
0.963746	1600026.4825744545
0.966222	2373188.2210141527
0.968705	2814385.844356534
0.971194	2870962.6757958834
0.97369	2303846.840909615
0.976193	3351205.6310632606
0.978702	3397596.6160069504
0.981217	2580159.2418021183
0.983739	1864316.1197194916
0.986268	2934211.6219342817
0.988802	3109937.051833885
0.991343	2503248.503261501
0.99389	4015599.805241743
0.996444	4731400.861434391
0.999003	2187070.9631395186
1.00157	3817422.7188626598
1.00414	5013384.030983331
1.00672	6492568.05948305
1.0093	6054258.217920244
1.01189	7385613.955339671
1.01448	8285776.20475818
1.01708	9045322.743746178
1.01969	9911306.392608985
1.0223	10423984.053923924
1.02492	10160180.939221604
1.02754	11828382.001807783
1.03017	13797358.363970043
1.0328	12164317.600343209
1.03544	14915919.812862033
1.03808	18349739.793664295
1.04073	15865958.71122148
1.04339	17110856.096876293
1.04604	17704513.166426644
1.04871	18582351.599243637
1.05138	19509549.828702014
1.05405	23196867.87802354
1.05673	20310790.194194973
1.05941	24505071.865664035
1.0621	22885500.954366032
1.06479	24550419.849804707
1.06749	24604425.663624387
1.07019	29518048.962055344
1.07289	28244277.367580075
1.0756	27691890.468390577
1.07832	26058512.259957775
1.08104	26605025.76634648
1.08376	21815799.96737649
1.08649	21512570.38457648
1.08922	14043679.981892606
1.09195	8273227.390590227
1.09469	6735705.50505213
1.09743	5315733.445341307
1.10018	5364661.374874126
1.10293	3663420.931166429
1.10568	2787040.7115802807
1.10844	2908184.84723629
1.1112	2064890.8527397367
1.11396	1496857.9361969226
1.11673	795406.7288655862
1.1195	1289031.2677883294
1.12228	659929.7876171233
1.12505	1154153.1245541237
1.12783	1473094.2813585869
1.13062	2188806.6949047484
1.13341	440742.1806081021
1.1362	511890.5403630421
1.13899	887005.5976568433
1.14178	1657904.80435604
1.14458	1184588.1381656292
1.14738	1019839.5525613491
1.15019	1886707.6465565874
1.153	1215453.2628395304
1.1558	680622.1318856882
1.15862	1373312.2700716686
1.16143	507841.20483518724
1.16425	240640.3235655647
1.16707	946059.3448381571
1.16989	1143643.786378944
1.17271	1660493.7697175802
1.17554	1912321.7763986725
1.17837	1309324.8474607992
1.1812	3321243.0577606144
1.18403	5192163.329720307
1.18686	3605018.861598995
1.1897	4809476.61031847
1.19253	5588292.1287366
1.19537	8102098.799636975
1.19822	5041901.870525811
1.20106	5343039.974231173
1.2039	8475866.669943593
1.20675	11108948.916695189
1.2096	13543864.801296223
1.21245	12777748.467358189
1.2153	13673339.624220436
1.21815	11792765.666511659
1.221	12886466.93015276
1.22385	16309780.10974442
1.22671	15680362.54893424
1.22957	20849382.0642681
1.23242	20508104.061007097
1.23528	18107635.531667285
1.23814	21759635.000122957
1.241	27621208.604519524
1.24387	24681988.33123851
1.24673	29963543.911022417
1.24959	27061722.403439272
1.25245	21568111.120122105
1.25532	34390900.006823294
1.25818	34322364.395655215
1.26105	35346845.917288184
1.26392	19610552.62654639
1.26678	27171994.190955978
1.26965	19321851.16631914
1.27252	29674661.275330763
1.27538	31063530.096634135
1.27825	24170951.130065583
1.28112	29160714.061007466
1.28399	22100951.100870483
1.28686	21117311.80741122
1.28973	20107514.667717144
1.2926	17839565.21848689
1.29546	15916996.051709455
1.29833	12940370.181228073
1.3012	18954091.4628831
1.30407	17900394.779075764
1.30694	13954961.563897759
1.30981	13087287.682710866
1.31267	16575629.924817426
1.31554	11478084.305534458
1.31841	10274678.995794883
1.32128	10011313.828040196
1.32414	5881989.1205033325
1.32701	3342540.715641084
1.32987	1985368.791275714
1.33274	2138253.783352042
1.3356	1498203.114454962
1.33847	286699.99698107527
1.34133	221257.25540541523
1.34419	208573.49389486556
1.34705	152329.1866620783
1.34991	355756.45206272247
1.35277	274159.096780687
1.35563	93970.62144797479
1.35849	60421.65020005376
1.36135	83366.058857396
1.3642	203016.8615125986
1.36706	128009.31937716185
1.36991	88673.03906868384
1.37277	140451.71554446308
1.37562	52748.009731333725
1.37847	59684.09694146862
1.38132	313710.86294588965
1.38417	82686.2161267231
1.38701	11312.052226685242
1.38986	93149.17989600213
1.39271	181221.8969897844
1.39555	71531.03863399684
1.39839	94324.10434855525
1.40123	182044.0317541277
1.40407	94790.83624725716
1.40691	55929.89173844165
1.40974	60217.46626583086
1.41258	201216.7197233332
1.41541	252369.1019939113
1.41824	109400.07268882888
1.42107	26114.201190716343
1.4239	27261.045972616394
1.42673	208873.5402629022
1.42955	425005.53110194264
1.43237	230823.87318807704
1.43519	555999.4217080493
1.43801	583575.3027015693
1.44083	306871.32838237006
1.44365	304556.88896525156
1.44646	267686.40499780903
1.44927	522721.307032581
1.45208	1235044.7556545842
1.45489	1109228.2941802717
1.45769	1566141.5119234165
1.4605	1005589.1821204169
1.4633	643133.2700631836
1.4661	1085535.369735035
1.4689	916280.460728767
1.47169	648623.4468795023
1.47449	762156.531935607
1.47728	930725.5514614626
1.48007	915608.4419970074
1.48286	862972.4914622031
1.48564	780772.3666371487
1.48842	1188878.5714525597
1.4912	1878141.101929225
1.49398	678543.9483988076
1.49676	925310.7274938511
1.49953	1375776.341338035
1.5023	2733839.029462752
1.50507	3041663.5966361845
1.50784	2267576.468026435
1.51061	2334801.4493379476
1.51337	2926956.4199900725
1.51613	1815089.5549440235
1.51888	1442562.3990185703
1.52164	2399845.3488024757
1.52439	2839129.3055718797
1.52714	1803579.8046344614
1.52989	2038671.9014124002
1.53263	3282934.6572699198
1.53538	4295914.807266335
1.53812	2826851.0665171463
1.54086	2146591.3783160313
1.54359	2534017.619671611
1.54632	4534528.750034805
1.54905	4406893.911941367
1.55178	4251072.409315741
1.5545	3215375.0727552455
1.55723	4679470.936967731
1.55995	5364792.212714117
1.56266	4454712.006049555
1.56538	7277549.7990385825
1.56809	8616519.152549345
1.5708	6943101.934303842
1.57351	7554749.517722281
1.57621	6743019.704464309
1.57891	6390736.336689056
1.58161	8327924.621601805
1.5843	6419149.696864397
1.587	5901711.393850051
1.58969	6897452.922697922
1.59238	5711995.521601092
1.59506	7684763.622821922
1.59774	8434733.663712045
1.60042	5279064.252950691
1.6031	3979501.4879978076
1.60577	3740182.6663858276
1.60844	2765394.9515429763
1.61111	2567158.709705305
1.61378	2086908.0066835165
1.61644	2714594.0528504536
1.6191	2196484.77046932
1.62176	2295274.619299853
1.62441	3308559.988851692
1.62707	5152888.907896546
1.62971	5753898.30350522
1.63236	3732702.306360729
1.635	6200285.953994372
1.63764	6760571.704515905
1.64028	4201636.199487121
1.64292	2440681.705988541
1.64555	1215492.696107644
1.64818	1076850.3579132925
1.65081	3561226.558035768
1.65343	4869987.037458739
1.65605	2601538.7985013817
1.65867	1506555.7424858746
1.66128	2769493.7236052966
1.6639	1614959.0208227888
1.66651	314414.47152206884
1.66911	32079.182738548374
1.67172	196614.04755599305
1.67432	709925.9342201899
1.67692	1749862.2759508782
1.67951	1588620.23512425
1.68211	711711.0991965504
1.6847	322968.24769086385
1.68728	200035.36073984453
1.68987	243264.80608011794
1.69245	226173.2155518552
1.69503	90027.63110222187
1.6976	118750.86648254533
1.70018	142278.52690802357
1.70275	76774.49200337274
1.70531	196564.29671751594
1.70788	318597.535767203
1.71044	679978.8029365919
1.713	1393148.0927224176
1.71556	1652782.056699183
1.71811	1570170.9926635844
1.72066	798988.4604137134
1.72321	460861.4231558511
1.72575	1058038.558289674
1.7283	1541608.842865899
1.73084	1551687.0762562165
1.73337	627898.043684322
1.73591	309891.05725630414
1.73844	497683.3868077252
1.74097	481112.94388438127
1.74349	679076.8931494753
1.74602	1006004.8451606998
1.74854	1172758.7186077998
1.75105	1453321.3464543018
1.75357	1166918.485242616
1.75608	564813.9938243561
1.75859	306516.55113363947
1.7611	183602.85322967547
1.7636	390519.9351871186
1.7661	538640.686856254
1.7686	492743.6711892555
1.7711	805731.1279599287
1.77359	525887.9054343557
1.77608	253635.55956341393
1.77857	1024673.9704170108
1.78105	1624829.5670112623
1.78354	928078.4736796481
1.78602	527188.4772697098
1.78849	474937.2621502013
1.79097	455340.39378787676
1.79344	493201.3785196068
1.79591	507020.2131781837
1.79837	881218.2309942833
1.80084	706637.1839790101
1.8033	651217.5802275055
1.80576	651469.2178611232
1.80821	801469.8359848973
1.81067	844291.7975743721
1.81312	1070335.932314155
1.81557	1016249.2310677308
1.81801	357678.24723198643
1.82046	371762.83431834367
1.8229	733518.7999807702
1.82533	561176.060429589
1.82777	427944.4182943136
1.8302	565388.0071846562
1.83263	487015.5759202292
1.83506	253561.54460673817
1.83749	283382.4968377561
1.83991	484156.3275843961
1.84233	693003.4815188985
1.84475	891788.8633148494
1.84716	628011.7878626275
1.84957	504276.00186317356
1.85198	559420.9825852753
1.85439	550899.8113076972
1.8568	383937.3097720001
1.8592	222078.63997296433
1.8616	327272.3343474884
1.864	376546.5573144985
1.86639	218415.77089681625
1.86878	171545.36696206132
1.87118	375256.3401524712
1.87356	404667.444482116
1.87595	477641.6133624179
1.87833	1212764.3947797099
1.88071	1468806.8456447865
1.88309	885660.1117397386
1.88547	754263.1505266468
1.88784	1014900.6598053034
1.89021	1139449.0833341107
1.89258	1444987.8622061093
1.89494	2323161.0956369983
1.89731	2039638.479204941
1.89967	925846.6798176847
1.90203	715446.0512874583
1.90439	826120.5046619951
1.90674	1043260.2496033428
1.90909	998938.3364606563
1.91144	458826.77719403483
1.91379	434861.5900140086
1.91613	913420.8311562341
1.91848	1104877.93559639
1.92082	735152.4094870947
1.92315	608804.1873940458
1.92549	721203.3042271569
1.92782	693710.033711002
1.93015	444121.81108143297
1.93248	202325.86706803914
1.93481	138864.9119456943
1.93713	158522.39971213767
1.93945	241812.2471439005
1.94177	527696.6902160265
1.94409	671594.1991200418
1.94641	743505.9350788016
1.94872	813956.793622072
1.95103	1000051.7752748978
1.95334	990777.9514236053
1.95564	771895.938702429
1.95795	719430.0954191214
1.96025	480109.91930635617
1.96255	350146.3458679901
1.96484	617681.0889667316
1.96714	906008.4745109105
1.96943	938291.7163260867
1.97172	1103016.5173560968
1.97401	1076948.367867048
1.97629	902786.5219408646
1.97858	1002588.8986364471
1.98086	874338.4753622843
1.98314	618372.8457809744
1.98541	818490.3686207065
1.98769	1378946.6309135829
1.98996	1477271.5936561418
1.99223	1274728.2555720895
1.9945	1517394.2784547503
1.99677	1777545.0599617984
1.99903	1749786.6774570753
2.00129	1606833.9157379942
2.00355	1520955.3855842077
2.00581	1706447.3234187118
2.00806	2071100.6671226174
2.01031	2298378.1147811315
2.01256	2734825.8780232947
2.01481	2951433.6546356906
2.01706	2460063.788759419
2.0193	2154813.468389496
2.02154	2480091.479900749
2.02378	2787913.642412592
2.02602	2695585.962968451
2.02825	2486155.2692411193
2.03049	2499791.8218135564
2.03272	2978048.042190943
2.03494	3415112.61046113
2.03717	3334576.848197298
2.03939	3226690.285537213
2.04162	4019934.3518579
2.04384	4884956.09187742
2.04605	4774210.443346381
2.04827	4215798.04840015
2.05048	4348711.460328406
2.05269	4552603.882319551
2.0549	3965778.4937301767
2.05711	3797311.847857671
2.05931	3867645.3082406716
2.06151	4114012.4458730384
2.06371	4286773.06008889
2.06591	3912941.6962327147
2.06811	3974525.2255421598
2.0703	4565223.6738905795
2.07249	5215780.180262678
2.07468	5714135.29257125
2.07686	5522483.2195149595
2.07905	5027372.202463129
2.08123	4748917.695478873
2.08341	4547583.614899545
2.08559	4298850.235537357
2.08776	4502535.3184873955
2.08994	4928470.710482428
2.09211	4991040.893835863
2.09428	5218979.197172835
2.09645	5416351.843333912
2.09861	4855455.68731506
2.10077	4206411.350061463
2.10293	4031946.8052862603
2.10509	4050021.9115718636
2.10725	4054897.559439856
2.1094	3535803.003589318
2.11155	2734286.4739600797
2.1137	2638539.2942005494
2.11585	2801393.565540788
2.11799	3092043.577054061
2.12013	3564991.4768270804
2.12227	3609939.9981511114
2.12441	3543331.4570734324
2.12655	3481333.995843299
2.12868	3228677.30609117
2.13081	3066320.5211797357
2.13294	2833764.9706607126
2.13507	2301219.502509526
2.13719	1884621.4536653971
2.13931	2082016.225644546
2.14143	2309408.61734878
2.14355	2006223.2366128163
2.14567	1697292.763112045
2.14778	1405890.0886303722
2.14989	1158222.6752886563
2.152	1235919.8322413901
2.1541	1351898.375647536
2.15621	1333629.0873624673
2.15831	1154077.532347373
2.16041	739287.7373450714
2.16251	457499.5900664441
2.1646	471776.76839086035
2.1667	528007.6481387313
2.16879	637278.8251122565
2.17087	861302.1176307393
2.17296	972188.3603990327
2.17504	993599.9340161111
2.17713	1024503.1687297904
2.1792	981362.0401279075
2.18128	837219.9163238459
2.18336	577592.0898047268
2.18543	380486.06060212577
2.1875	309637.37067838066
2.18957	263834.4981497527
2.19163	256423.74661939734
2.1937	315940.16970333864
2.19576	301654.20429063257
2.19782	177238.4095658212
2.19987	73266.53870659244
2.20193	42190.6056943414
2.20398	45636.66862121188
2.20603	45345.35696333668
2.20808	44294.98668163522
2.21012	48130.937052342524
2.21217	56386.48402096519
2.21421	76403.61286351735
2.21625	88778.30248641293
2.21828	81901.03909035043
2.22032	81474.74858326161
2.22235	91109.81171909056
2.22438	99310.60584420463
2.22641	103283.1618849424
2.22843	116713.42567480709
2.23046	108604.54320712887
2.23248	67178.2834814266
2.2345	32925.548579561706
2.23651	20128.474703305797
2.23853	20363.641577389422
2.24054	31176.063043327085
2.24255	45797.60362664376
2.24456	54899.373223217146
2.24657	56730.97732135604
2.24857	55287.59993236216
2.25057	48763.2044446058
2.25257	34011.09697439925
2.25457	19876.53608315739
2.25656	14177.174004467604
2.25856	15171.797042863478
2.26055	16313.601006231836
2.26254	15792.797925037647
2.26453	18126.936879059376
2.26651	23593.72156798638
2.2685	25372.962745101617
2.27048	23802.113102411626
2.27246	24568.370780212248
2.27443	23639.071940115624
2.27641	22792.99239835368
2.27838	26861.653330927013
2.28036	30797.257626975977
2.28233	30772.94778617047
2.28429	26926.242730965
2.28626	21494.60083214305
2.28823	15314.288918143442
2.29019	9438.28534383001
2.29215	5682.188724968351
2.29411	6572.91289057108
2.29607	11068.608735135751
2.29802	17253.663607908704
2.29998	27378.150775513182
2.30193	43697.689589863185
2.30388	56010.14034135169
2.30583	60037.067819155316
2.30778	69122.84271654209
2.30972	88443.15368898876
2.31167	105836.29171797253
2.31361	97302.85613542392
2.31555	65643.2809639931
2.31749	28915.687434839867
2.31943	12547.043088686416
2.32137	8346.468952980416
2.32331	7550.23718918411
2.32524	7062.863884237547
2.32718	6945.10528880491
2.32911	6599.375684706744
2.33104	6103.823245389367
2.33297	7412.008661610096
2.3349	12747.464048337482
2.33683	19978.537551815953
2.33876	22492.525861309718
2.34068	20752.081007145385
2.34261	18852.828328949738
2.34453	19752.461130967567
2.34646	24953.48232560775
2.34838	34257.88914914605
2.3503	39768.2117851713
2.35223	41493.55394122576
2.35415	38868.28120669738
2.35607	32601.792661318723
2.35799	30359.226102521632
2.35991	36825.353873944514
2.36183	48965.73516155619
2.36375	58262.00323640585
2.36566	56326.07728347363
2.36758	43770.48565692541
2.3695	36279.6538123521
2.37142	39501.46147723282
2.37334	44772.08731895576
2.37526	40072.04154209462
2.37718	30067.176608685128
2.3791	22588.31162241236
2.38101	19851.794575008138
2.38293	21982.820785310996
2.38485	29119.984796576715
2.38677	42015.024421188944
2.3887	50968.54244193391
2.39062	47417.90137206724
2.39254	40294.305088676956
2.39446	43302.81381149859
2.39639	56358.741071575954
2.39831	74914.26632867091
2.40024	97282.06667333357
2.40216	111691.34447518393
2.40409	119860.73717853858
2.40602	108502.5382730015
2.40795	89328.64081155126
2.40989	81598.77678240878
2.41182	94586.84455136405
2.41376	111285.71373476085
2.4157	139729.57646188972
2.41764	157120.26695643214
2.41958	144287.08322542824
2.42152	108782.4802984055
2.42347	89757.65812604276
2.42542	109329.33728438003
2.42737	169914.3861947753
