#wavelength	surface flux
0.676892	13805.06793936087
0.678297	14372.160242417445
0.679702	14895.075738598289
0.681109	15385.918240925192
0.682517	15785.202385713903
0.683926	16174.52538824495
0.685337	16488.7523445089
0.686749	16726.557533448784
0.688164	16886.13122209267
0.689581	16946.924024166412
0.691	16790.560241222614
0.692422	16121.517250842648
0.693847	16226.733490815148
0.695274	16140.940146402749
0.696705	16129.928406683195
0.698139	15977.669321757669
0.699576	15527.057408925664
0.701017	15124.976866976547
0.702461	14554.53298766482
0.70391	14292.953732802232
0.705362	13779.100162735978
0.706819	13306.76641110328
0.70828	12838.476529326812
0.709745	12157.192730923358
0.711216	11593.74168425067
0.71269	10970.40079943178
0.71417	10472.782550752636
0.715655	9504.50674504731
0.717145	8248.937482486106
0.71864	7517.332614489979
0.72014	7300.579305411272
0.721647	7027.2782947250325
0.723158	6778.463816987512
0.724676	6197.099788052041
0.726199	5628.909140982068
0.727728	4973.572093559806
0.729264	4974.722959931576
0.730805	4505.957514959263
0.732353	4704.704577687826
0.733907	4532.5345192233
0.735468	4082.894041723028
0.737035	4076.7787686027327
0.738609	3859.161913880443
0.74019	3711.8734792001837
0.741777	3562.0236624834015
0.743372	3450.684982390546
0.744973	3307.842400081317
0.746582	3143.9425154252044
0.748197	2978.097979554622
0.74982	2856.7521119966564
0.751451	2697.121983975445
0.753088	2519.690954587018
0.754734	2322.856587441043
0.756386	2103.0673063722616
0.758047	1851.6687695197766
0.759715	1572.4813769622388
0.76139	1265.0814395766297
0.763074	918.6893779151743
0.764765	495.00176503140324
0.766464	149.99273026055914
0.768172	328.74914514808074
0.769887	229.26661477429062
0.77161	748.4787215109277
0.773341	1369.6310517041936
0.775081	1915.232084076606
0.776829	2439.4933277758687
0.778585	2651.3578264708185
0.780349	2423.823061871249
0.782121	3940.1120792682964
0.783902	4635.183491476774
0.785691	5233.143813221223
0.787489	5895.960097549698
0.789295	6578.40865597535
0.79111	7298.897889141292
0.792933	7487.108012636842
0.794764	5592.986303021305
0.796604	9211.673809689144
0.798453	11007.103918243121
0.80031	12358.13437396582
0.802176	13749.162924178734
0.804051	15464.396845112451
0.805934	17053.94312391252
0.807826	18983.39860368254
0.809727	20675.617528717685
0.811636	21977.546886475193
0.813554	22192.41942158722
0.81548	26457.554932627114
0.817416	30944.315665866616
0.81936	35069.471964232485
0.821313	39890.58264962377
0.823274	40830.02578366083
0.825244	46790.14569594648
0.827223	54833.049636751326
0.829211	59425.009073227026
0.831208	63242.201332525256
0.833213	72950.24725199211
0.835227	79926.64556601922
0.837249	85709.35577466228
0.83928	99307.23530891191
0.841321	109457.67093457739
0.843369	121741.70491541293
0.845427	132106.7646871414
0.847493	150717.98712076232
0.849567	159351.35069301
0.851651	124912.79987739911
0.853742	181336.32254825064
0.855843	215679.69538556985
0.857952	234319.21993642813
0.86007	255180.45262102474
0.862196	270706.34940709395
0.864331	291778.39491865836
0.866474	319349.34742542723
0.868626	350438.96419922734
0.870786	380376.4181709256
0.872955	413257.8915848388
0.875132	440051.83403426915
0.877317	460763.72784082004
0.879511	485099.6939856329
0.881713	429392.79726429493
0.883923	397801.71800188784
0.886142	425911.46069915657
0.888369	396103.0825862796
0.890604	430469.7598766852
0.892847	345462.9459116185
0.895099	290004.6802206126
0.897358	457591.06302474247
0.899626	549725.931059633
0.901901	707519.3545253358
0.904185	930444.0382228356
0.906476	1030177.9653145511
0.908776	867015.3110065587
0.911083	982495.8641918892
0.913398	907733.2175444004
0.915721	1063555.4832152594
0.918051	1027800.1847680528
0.92039	1197988.7190901649
0.922736	1234987.817619928
0.925089	965488.6366290138
0.927451	448405.01539737976
0.929819	174405.22369892063
0.932195	179507.49537383733
0.934579	209296.90529843615
0.93697	561209.9173934368
0.939369	872502.8023783463
0.941774	807370.0930938271
0.944187	572102.8126959705
0.946607	612986.9574757146
0.949035	730267.0838417668
0.951469	486828.74399150326
0.953911	527921.2661049116
0.956359	382209.19801148097
0.958814	622214.3997179559
0.961277	315689.5342295163
0.963746	600619.621286057
0.966222	775334.8223739816
0.968705	1186476.41480779
0.971194	1346003.0530382385
0.97369	1151223.3563352944
0.976193	1508487.296743189
0.978702	1526762.16073574
0.981217	1567670.9789865813
0.983739	1359165.4638690173
0.986268	1859323.4791275985
0.988802	1894146.6437078442
0.991343	2170549.5527081774
0.99389	2535614.0349463467
0.996444	2891890.160378378
0.999003	2964016.4176483927
1.00157	3702142.2252350817
1.00414	4254376.779176731
1.00672	4755187.15224642
1.0093	4741295.740013152
1.01189	5012088.374370656
1.01448	5170916.752023004
1.01708	5334049.545944637
1.01969	5306040.674453731
1.0223	5788066.698385673
1.02492	6212015.9047963265
1.02754	6584404.995456136
1.03017	6694744.287500293
1.0328	6297771.809829273
1.03544	7187004.79502879
1.03808	7642874.433082862
1.04073	7724813.4394936655
1.04339	8098695.730957929
1.04604	8606593.310571479
1.04871	8669424.432492578
1.05138	8892717.948041055
1.05405	9362357.028996885
1.05673	9730814.739898996
1.05941	9841515.276602218
1.0621	10097728.250847157
1.06479	9869265.40962218
1.06749	9872719.285964565
1.07019	9888351.072723709
1.07289	10055920.381258024
1.0756	9975196.181476498
1.07832	9466422.25785594
1.08104	9600962.0220181
1.08376	9718342.073595824
1.08649	8376598.73849588
1.08922	6645884.8650128255
1.09195	5318604.327697873
1.09469	4040205.1798337908
1.09743	3161868.5408657007
1.10018	1935148.2318793256
1.10293	1139494.0770079799
1.10568	729809.2676371706
1.10844	761023.8104458695
1.1112	345833.82575406105
1.11396	280264.5986401935
1.11673	210317.64777927205
1.1195	252437.8857312539
1.12228	167849.5394033427
1.12505	418679.0059455266
1.12783	438169.2983682388
1.13062	497458.39116479695
1.13341	152368.49226198747
1.1362	212193.53328025647
1.13899	703125.9941363134
1.14178	866222.6275782246
1.14458	400108.2099286001
1.14738	358855.46867132676
1.15019	632258.8214736563
1.153	356892.7470907313
1.1558	268687.0863747712
1.15862	458384.9457321946
1.16143	214803.2234823396
1.16425	203200.33922841796
1.16707	345408.4459735527
1.16989	621607.49721196
1.17271	947491.1339283803
1.17554	1138880.9615810998
1.17837	999930.6582649515
1.1812	2025422.142873296
1.18403	2234253.83567205
1.18686	2135456.407152085
1.1897	2740426.498822372
1.19253	3220020.958888462
1.19537	3826890.499643546
1.19822	4065268.5297522196
1.20106	4618351.502343844
1.2039	5357467.812225866
1.20675	6327942.945734006
1.2096	5841002.774418794
1.21245	6044149.546174652
1.2153	6830673.28737166
1.21815	6388781.119421626
1.221	7487571.453324788
1.22385	8078941.376681542
1.22671	8827837.329132203
1.22957	10626458.561088325
1.23242	10721430.501990117
1.23528	11291408.152034625
1.23814	11400782.444554798
1.241	12048912.772841863
1.24387	11844386.147244697
1.24673	13438739.873638166
1.24959	12765786.729065647
1.25245	11590370.852338647
1.25532	14486774.885555917
1.25818	15583806.241158767
1.26105	16461639.90051796
1.26392	15469092.00197969
1.26678	15636945.171829237
1.26965	14528004.411443459
1.27252	14452674.612808065
1.27538	14113117.297015093
1.27825	12986913.07602937
1.28112	11656571.447937319
1.28399	8723911.409636334
1.28686	7757679.184465973
1.28973	7523381.9305299455
1.2926	7012943.177783089
1.29546	5819586.884971564
1.29833	5973177.472149908
1.3012	6185012.720440378
1.30407	6397855.962417575
1.30694	5527387.808137404
1.30981	5608746.716809714
1.31267	5029689.6129230885
1.31554	3845711.110548994
1.31841	3377766.7271356657
1.32128	5134672.125316702
1.32414	3106469.461653668
1.32701	2130055.143154593
1.32987	868423.0651548088
1.33274	581066.5513531879
1.3356	518063.1306156293
1.33847	67800.75971103368
1.34133	35331.69778253718
1.34419	48972.72437107193
1.34705	22581.720530776252
1.34991	24240.09083804474
1.35277	19280.44505242036
1.35563	7780.369178413756
1.35849	4971.1417817307865
1.36135	8154.955842818614
1.3642	19195.306343409804
1.36706	11812.645789250148
1.36991	12617.934369569384
1.37277	13599.936673488528
1.37562	31830.366021990736
1.37847	27537.925900559698
1.38132	13379.419364965863
1.38417	4479.138853191358
1.38701	2966.325970350812
1.38986	15651.993761204632
1.39271	29041.024023467686
1.39555	10330.855889428365
1.39839	9739.56950012555
1.40123	16214.0843181557
1.40407	21008.194765384418
1.40691	19143.8140381062
1.40974	11438.447712061252
1.41258	22834.594515899462
1.41541	37406.764137038364
1.41824	17902.480336181616
1.42107	6616.249242895829
1.4239	8886.569229761211
1.42673	42732.02667643954
1.42955	89258.92775194101
1.43237	56653.7968223177
1.43519	94260.35766239469
1.43801	91646.51886197903
1.44083	76939.47460941727
1.44365	109416.26392540285
1.44646	82193.94938084287
1.44927	163790.86330890842
1.45208	295960.103369222
1.45489	192363.2503656755
1.45769	325142.06710780325
1.4605	304317.21886656486
1.4633	201792.76410200523
1.4661	310424.70996785915
1.4689	266348.18160945567
1.47169	196384.21388436435
1.47449	140086.4842382103
1.47728	116217.26908309099
1.48007	121080.87744835268
1.48286	230111.95079801968
1.48564	204630.6445892138
1.48842	169177.00755275463
1.4912	227569.1194556679
1.49398	163322.87141187506
1.49676	228283.2680052459
1.49953	355988.3346837302
1.5023	391518.9449371755
1.50507	465099.68890402047
1.50784	474141.05502945813
1.51061	347257.51176469686
1.51337	246440.68612042323
1.51613	243328.51880131185
1.51888	305504.57524653897
1.52164	457408.44900902704
1.52439	551383.2638749907
1.52714	513739.98302687966
1.52989	783389.6248846301
1.53263	933713.6380216313
1.53538	1055134.6932957724
1.53812	1223292.9811081549
1.54086	875278.6696003176
1.54359	1129945.72765076
1.54632	1184444.1470437325
1.54905	1135554.8740462433
1.55178	1077616.468799611
1.5545	1472611.9687698053
1.55723	2035863.3637787988
1.55995	2453624.17289588
1.56266	2266615.6032405267
1.56538	3549005.767977131
1.56809	4288547.927012624
1.5708	4295078.8563069245
1.57351	3961622.6090796445
1.57621	4611558.646104865
1.57891	4438519.671712582
1.58161	4935368.556897063
1.5843	4870979.421559481
1.587	4928843.791437287
1.58969	4551632.643334646
1.59238	3938311.694393115
1.59506	4499449.5832470795
1.59774	4732429.270802596
1.60042	4141999.0160727557
1.6031	3450416.432981259
1.60577	3056096.9006019146
1.60844	2568681.803124643
1.61111	2216640.3296607113
1.61378	1765085.0826710232
1.61644	1448147.147071609
1.6191	1206536.3826921044
1.62176	1342394.3050158008
1.62441	1412535.0592547688
1.62707	1330149.4166097678
1.62971	1357117.8468996068
1.63236	1067169.6025875048
1.635	1431142.1976748323
1.63764	1763860.6157682652
1.64028	1675404.6477476347
1.64292	1410810.0448798707
1.64555	1037317.5055662561
1.64818	814111.8943888426
1.65081	1394559.7310537675
1.65343	1649428.2512368616
1.65605	1025642.4081818132
1.65867	1164602.2462967008
1.66128	1807158.741560762
1.6639	1205934.5950706562
1.66651	219171.62825931289
1.66911	89344.88460243662
1.67172	447692.7163807699
1.67432	829338.6721502219
1.67692	1037806.9688252471
1.67951	811880.476701013
1.68211	505721.72167097137
1.6847	340459.0243026792
1.68728	322602.23947589326
1.68987	315382.061573781
1.69245	196198.03217255085
1.69503	214059.77885988657
1.6976	170880.12204486557
1.70018	143585.5849390385
1.70275	113380.56958842449
1.70531	136506.72762980754
1.70788	270304.2663632969
1.71044	496974.3273512324
1.713	765382.0755145046
1.71556	856412.5298785795
1.71811	851275.7035162094
1.72066	661002.8333647627
1.72321	382938.1255894051
1.72575	602580.3417211925
1.7283	698655.3565906966
1.73084	697646.5515647333
1.73337	509239.62596196146
1.73591	449259.5894986568
1.73844	636275.6811565803
1.74097	691915.9517875923
1.74349	719088.8140959506
1.74602	842629.9801774027
1.74854	1056221.0071691687
1.75105	1052596.0852449876
1.75357	729649.9590233621
1.75608	321747.0539945254
1.75859	282171.976924556
1.7611	275344.5372888016
1.7636	285483.19106204435
1.7661	309287.45061186235
1.7686	271716.9774844706
1.7711	334599.88483733905
1.77359	284422.4607497367
1.77608	179185.22693968427
1.77857	262083.641191499
1.78105	354615.5198133313
1.78354	231604.39526088745
1.78602	145948.632389067
1.78849	188470.33961487963
1.79097	161208.99891169494
1.79344	122023.3200404243
1.79591	168532.03658575745
1.79837	271099.7197669301
1.80084	157270.44507303732
1.8033	86495.47980130021
1.80576	94456.70488309524
1.80821	102816.3550963256
1.81067	103367.90757716217
1.81312	134067.19948522994
1.81557	139186.41735831057
1.81801	88864.51974255666
1.82046	68175.13917869313
1.8229	108517.29272152598
1.82533	98174.367471823
1.82777	47633.47575942016
1.8302	43533.3298553695
1.83263	51707.08399899179
1.83506	42300.580073113815
1.83749	32737.716852501875
1.83991	44493.13969105119
1.84233	91161.94664402242
1.84475	166806.62843022167
1.84716	111271.85426487369
1.84957	107492.27809726328
1.85198	168067.20908394863
1.85439	114621.98261719036
1.8568	52925.722055873186
1.8592	27411.573044361372
1.8616	38341.181224368
1.864	48227.535973513135
1.86639	36189.55463203719
1.86878	18978.278560797542
1.87118	25174.777919015625
1.87356	36220.85599983279
1.87595	69482.64628591781
1.87833	184760.56210642523
1.88071	238032.147961906
1.88309	178749.72357349686
1.88547	143991.06090326954
1.88784	177286.52104312895
1.89021	182636.6671410746
1.89258	211886.2601783983
1.89494	315513.11927090655
1.89731	269655.70846772654
1.89967	136343.39439306196
1.90203	118615.13640252475
1.90439	97012.34579458994
1.90674	104166.6943483107
1.90909	102183.47440182013
1.91144	40926.024636610906
1.91379	33469.62933743908
1.91613	75850.28789756433
1.91848	86728.89979265966
1.92082	53494.708144560704
1.92315	44804.30906594221
1.92549	49685.857664633426
1.92782	48300.900935558384
1.93015	36739.593549029916
1.93248	26373.753588917214
1.93481	27837.56194664909
1.93713	28695.922646671857
1.93945	30576.97438470907
1.94177	53258.67828714731
1.94409	57142.70504490499
1.94641	44683.29509804076
1.94872	33405.911113451606
1.95103	40138.20438781647
1.95334	53272.69389980057
1.95564	61631.87114778503
1.95795	74510.24199873416
1.96025	63848.31753942382
1.96255	53275.530120880336
1.96484	88342.01773072641
1.96714	128920.42974655992
1.96943	121952.08349842842
1.97172	108450.75537907507
1.97401	104731.93750335126
1.97629	117045.2195509706
1.97858	133251.1632870439
1.98086	105041.74731170543
1.98314	75492.09452449912
1.98541	115755.35077287591
1.98769	174585.06614861527
1.98996	154882.9455611937
1.99223	129242.99063929051
1.9945	183315.41768059577
1.99677	247013.95528971232
1.99903	271801.7056903127
2.00129	259234.46489217292
2.00355	234193.50843998793
2.00581	250110.53720183563
2.00806	291152.3901076074
2.01031	277637.11497150786
2.01256	278935.24936072255
2.01481	282397.4462171007
2.01706	239162.1704085897
2.0193	220126.5726788048
2.02154	270059.98140674
2.02378	333238.6422912655
2.02602	316796.3206555222
2.02825	249619.42587246923
2.03049	268613.32384889794
2.03272	362969.71499686735
2.03494	409520.2881412107
2.03717	380126.59586070414
2.03939	372619.5556809575
2.04162	472546.62644621404
2.04384	578618.5978295389
2.04605	619115.2646487929
2.04827	592093.987438661
2.05048	598972.2525035482
2.05269	646008.132763565
2.0549	646492.8074866773
2.05711	628960.9011522877
2.05931	628523.2672636446
2.06151	719417.718017199
2.06371	814012.5378509143
2.06591	810644.884149364
2.06811	781594.7191565189
2.0703	839777.9117310664
2.07249	941640.8799481385
2.07468	997544.4740405445
2.07686	1029721.7947200316
2.07905	1023435.2509017191
2.08123	975532.6800689417
2.08341	973293.7157624745
2.08559	1002107.4744429545
2.08776	1026690.8934685648
2.08994	1051313.156323045
2.09211	1023712.9999944519
2.09428	980862.7462319541
2.09645	986333.8232109608
2.09861	989699.2047727194
2.10077	964214.3745224746
2.10293	979110.3249118819
2.10509	1035068.9494431657
2.10725	1053848.3933860906
2.1094	998445.3081606248
2.11155	915562.4689292639
2.1137	897251.114442258
2.11585	920657.5271016468
2.11799	939515.9124664147
2.12013	958980.3499639474
2.12227	946252.7302827219
2.12441	930643.1082067299
2.12655	921337.6128982214
2.12868	893368.7660997659
2.13081	863915.2919771178
2.13294	834609.3259867984
2.13507	780731.414944
2.13719	751132.6332586159
2.13931	795564.4114495527
2.14143	812543.8090540203
2.14355	742716.6529305005
2.14567	650523.5547026977
2.14778	568452.8211596368
2.14989	526990.955475557
2.152	525286.8989235039
2.1541	503859.6818792362
2.15621	466308.9033740193
2.15831	425380.76544082747
2.16041	335804.40115931764
2.16251	256016.66074330578
2.1646	261632.88690317917
2.1667	304292.6179021153
2.16879	344373.70624825294
2.17087	383385.64812825556
2.17296	390660.53745026
2.17504	385182.1876545617
2.17713	383841.49289930315
2.1792	337417.09090419835
2.18128	260260.08170838753
2.18336	222780.72594148957
2.18543	251421.22486013058
2.1875	268238.52354924235
2.18957	223856.81588551676
2.19163	176570.18003887832
2.1937	156904.37105683776
2.19576	133404.5993126665
2.19782	88615.86794254834
2.19987	43107.94246251714
2.20193	25522.684331384702
2.20398	30733.213504962245
2.20603	39555.25210351079
2.20808	42499.11744122654
2.21012	37222.58800742882
2.21217	35089.82496372338
2.21421	50032.7185880377
2.21625	64709.006242229094
2.21828	62168.98014349988
2.22032	52198.97489405779
2.22235	51831.624410622404
2.22438	58664.55728634323
2.22641	50227.76638202674
2.22843	31304.866111711908
2.23046	19841.122275772428
2.23248	18617.32805891568
2.2345	20422.86787913835
2.23651	18009.753397034936
2.23853	16003.175110685715
2.24054	20266.745496096377
2.24255	25647.41275943658
2.24456	26475.007557133773
2.24657	21891.89925631846
2.24857	16501.7097394676
2.25057	13502.564907203465
2.25257	10569.339776605939
2.25457	7490.883979650644
2.25656	6910.727649935506
2.25856	11048.703372804377
2.26055	15510.483022265837
2.26254	15715.402248714416
2.26453	13352.677906239718
2.26651	12638.740106510897
2.2685	13342.858018391158
2.27048	15164.21060079815
2.27246	20797.709454107546
2.27443	23886.719599693362
2.27641	22905.326092128053
2.27838	23356.82827566505
2.28036	23465.447671261485
2.28233	19225.907547876828
2.28429	15219.831906390682
2.28626	12656.156480907683
2.28823	10517.018731864448
2.29019	8575.219563609386
2.29215	7431.423008949589
2.29411	7992.646641544184
2.29607	9701.750553024736
2.29802	11176.524628645693
2.29998	12514.357904537419
2.30193	16824.74957643688
2.30388	23363.72029638989
2.30583	30655.277062654935
2.30778	43263.6383972295
2.30972	66080.9804422035
2.31167	85658.90409618443
2.31361	78104.20058366668
2.31555	48324.32907770534
2.31749	18454.86106059129
2.31943	7102.278385532377
2.32137	6077.661224384445
2.32331	7117.443968002808
2.32524	6605.868636613874
2.32718	5149.225665072631
2.32911	4007.9340665807317
2.33104	3729.4336381846074
2.33297	5587.1839176920175
2.3349	9935.516649633026
2.33683	14095.277479667637
2.33876	14755.849726734714
2.34068	13030.386407454844
2.34261	11339.010202306192
2.34453	10802.903256249545
2.34646	12750.334513054562
2.34838	17431.56350035364
2.3503	20093.110072308937
2.35223	20818.157585716635
2.35415	19810.167310259094
2.35607	20560.447187731395
2.35799	29547.74154350915
2.35991	40274.33379246772
2.36183	44393.87208352263
2.36375	42701.48453877019
2.36566	40456.81985110479
2.36758	31751.32929308259
2.3695	20871.596304481387
2.37142	14369.718224002929
2.37334	14664.157976104834
2.37526	16877.03479969627
2.37718	18002.268741047003
2.3791	19409.247702148517
2.38101	21444.83801717774
2.38293	23305.637185989657
2.38485	23486.816234028014
2.38677	26418.374072553965
2.3887	33177.218980610676
2.39062	39556.43648083987
2.39254	43217.50987201994
2.39446	44839.86242457552
2.39639	45481.30579414952
2.39831	47015.19682952359
2.40024	58650.01400034767
2.40216	70400.97080725599
2.40409	74129.32275645477
2.40602	61898.77289875389
2.40795	50327.673289727325
2.40989	55984.75934491616
2.41182	76536.10832514943
2.41376	87642.33058437517
2.4157	86071.51358885397
2.41764	81908.32480734862
2.41958	82034.96104836527
2.42152	81878.10798339102
2.42347	77871.95479999823
2.42542	73343.45395016683
