#wavelength	surface flux
0.676892	416029.9283384301
0.678297	441779.3134320449
0.679702	465809.62038371403
0.681109	488424.6974986658
0.682517	509112.9832456227
0.683926	528923.9354847796
0.685337	546838.1178219494
0.686749	562598.5441837717
0.688164	576270.5160669732
0.689581	586774.5878769936
0.691	588162.6714600412
0.692422	592217.0173350705
0.693847	589289.7860611401
0.695274	603332.7098466073
0.696705	605882.7229657121
0.698139	604989.625197617
0.699576	599128.2717997074
0.701017	590855.388586829
0.702461	579907.3378039562
0.70391	569308.488296767
0.705362	553734.3447456474
0.706819	537851.1139665658
0.70828	521006.7035247208
0.709745	500072.55153233773
0.711216	479286.64764083707
0.71269	457678.11869756767
0.71417	435493.7510931666
0.715655	405599.31598600256
0.717145	375285.940546348
0.71864	350277.3300648678
0.72014	331286.4102076865
0.721647	310582.4320576285
0.723158	293549.36177706695
0.724676	269164.1641270717
0.726199	244914.38218566694
0.727728	217644.2105646721
0.729264	204735.0558167626
0.730805	183943.2033857826
0.732353	171024.7126233453
0.733907	153609.0194346438
0.735468	133455.82169244872
0.737035	121978.35523180326
0.738609	107452.10674182179
0.74019	94212.77665739843
0.741777	81637.97130589842
0.743372	70327.63724948838
0.744973	59709.196736133
0.746582	50001.59588566368
0.748197	41287.98645847235
0.74982	33879.580513254274
0.751451	27302.37052621824
0.753088	21706.877491108567
0.754734	17038.233668797464
0.756386	13206.164092163634
0.758047	10108.852278016704
0.759715	7625.786547152642
0.76139	5597.454586133519
0.763074	3819.1059585504445
0.764765	1983.3681290291438
0.766464	606.740807960031
0.768172	1295.0543261604514
0.769887	909.3981851817566
0.77161	2998.5751198605276
0.773341	5754.196302221185
0.775081	8678.723749479213
0.776829	12277.141716581898
0.778585	15118.753003723761
0.780349	16026.645149793001
0.782121	29873.85629059134
0.783902	40662.182018839165
0.785691	53123.429503631734
0.787489	68309.06636324557
0.789295	86203.61766193186
0.79111	106346.64479972298
0.792933	115498.43966979854
0.794764	77623.69152586447
0.796604	170274.82534368924
0.798453	226651.67234578574
0.80031	272153.8925359393
0.802176	320541.9188320727
0.804051	375787.6875700289
0.805934	433942.6660911889
0.807826	498772.2436878598
0.809727	567804.1414701972
0.811636	639128.9027560406
0.813554	707671.7966798242
0.81548	812591.4221695468
0.817416	912942.0062808485
0.81936	949957.0752192879
0.821313	1153455.0166005453
0.823274	1285028.9094161033
0.825244	1416117.966392824
0.827223	1593267.9165034443
0.829211	1731415.3080771721
0.831208	1872162.8802760264
0.833213	2114792.499887424
0.835227	2292586.0750313927
0.837249	2432335.9948824584
0.83928	2721374.562396993
0.841321	2983779.2743195877
0.843369	3239808.6698616636
0.845427	3477555.272103562
0.847493	3823206.904705501
0.849567	3894445.818418684
0.851651	2650617.1211005887
0.853742	4163150.9694480756
0.855843	5114161.504971844
0.857952	5555938.044634573
0.86007	5814072.67889238
0.862196	4587909.270965245
0.864331	5029584.764129881
0.866474	5655717.1417430295
0.868626	6010020.060835659
0.870786	5938747.049616637
0.872955	6276883.7389987465
0.875132	6069299.876321763
0.877317	8111740.126242287
0.879511	8611933.325100522
0.881713	8099577.830203163
0.883923	8698985.828108817
0.886142	9481483.249822792
0.888369	8968589.029378511
0.890604	10324582.502061395
0.892847	8223508.045276753
0.895099	7097947.896516795
0.897358	11235121.333738254
0.899626	13068369.974491855
0.901901	15021238.744681709
0.904185	17222069.63007577
0.906476	16716489.833738733
0.908776	15246108.563511211
0.911083	17162592.796544738
0.913398	17886259.05265364
0.915721	20294384.359866854
0.918051	20804405.12871967
0.92039	23815847.704825334
0.922736	23737419.1210128
0.925089	21887661.755044427
0.927451	16828031.1559695
0.929819	12144533.310125323
0.932195	10487517.091735968
0.934579	11613083.704414893
0.93697	21527248.30574665
0.939369	24355027.635429144
0.941774	23274402.605971217
0.944187	20079272.314347915
0.946607	25147152.16733185
0.949035	26594818.563258573
0.951469	19599203.17211649
0.953911	22485562.423182435
0.956359	18336922.75745877
0.958814	26098607.270957418
0.961277	18457345.196356606
0.963746	19034880.56676763
0.966222	26572172.86599737
0.968705	30114385.534187056
0.971194	33728454.90097501
0.97369	30987421.599987276
0.976193	38965006.65646897
0.978702	37453973.980449095
0.981217	39777269.77808604
0.983739	35437927.66419
0.986268	43030054.57372074
0.988802	44435299.310822554
0.991343	37885620.58234376
0.99389	43273028.726865634
0.996444	43589646.1449112
0.999003	29249411.359889623
1.00157	28948115.47416023
1.00414	33618882.479075484
1.00672	34908804.375065535
1.0093	36475817.55873935
1.01189	38496934.15491847
1.01448	46429754.29861849
1.01708	48237233.2727621
1.01969	55684242.77278549
1.0223	56708263.610742934
1.02492	57360879.82417629
1.02754	57648224.06249137
1.03017	66679214.587113336
1.0328	68206179.21487966
1.03544	68349629.47377071
1.03808	80503810.43984205
1.04073	79447128.69608694
1.04339	80224728.88846323
1.04604	78032969.11331141
1.04871	79011693.12884256
1.05138	81097306.90889011
1.05405	86798642.87154919
1.05673	84540774.07837749
1.05941	93365761.11814643
1.0621	91256540.95741671
1.06479	97190012.51622653
1.06749	99641869.71873076
1.07019	107239615.09653142
1.07289	105279296.18170862
1.0756	109406332.38656133
1.07832	111756703.21123712
1.08104	111549288.61128011
1.08376	116476451.97065197
1.08649	105091819.69944966
1.08922	93834715.62414204
1.09195	83370182.08688655
1.09469	75588337.36406752
1.09743	59541300.43174447
1.10018	50677997.72846313
1.10293	39333673.61710622
1.10568	28350314.29700378
1.10844	34514073.21014043
1.1112	25935899.89439467
1.11396	21820906.32786269
1.11673	17573646.805195116
1.1195	24984890.43513994
1.12228	19530057.930001196
1.12505	26998036.262148667
1.12783	33614984.8907318
1.13062	30413302.935114924
1.13341	11783196.221584575
1.1362	15468260.488931144
1.13899	22179244.29159313
1.14178	32667573.11072506
1.14458	25281760.22994115
1.14738	25843775.679376934
1.15019	42236704.268473536
1.153	30450917.549499325
1.1558	24368320.238046013
1.15862	36366035.77838854
1.16143	21804578.15868039
1.16425	16478631.379519382
1.16707	18936549.085327763
1.16989	22226320.781059243
1.17271	33234137.78868068
1.17554	27162697.98397254
1.17837	20046315.67569575
1.1812	43600941.69894865
1.18403	46599797.86981755
1.18686	45744194.19046907
1.1897	52913274.884042226
1.19253	58763795.13616044
1.19537	66698098.267339915
1.19822	68867908.70311171
1.20106	75352923.13010308
1.2039	79019501.98060045
1.20675	87804351.71099092
1.2096	97149206.36798878
1.21245	101330188.81659175
1.2153	106081658.18711409
1.21815	107029352.5373773
1.221	115056541.21823776
1.22385	122256822.0232039
1.22671	126697630.96234941
1.22957	133481095.70866948
1.23242	137041938.006188
1.23528	132667606.06993203
1.23814	134302353.24849257
1.241	121349328.52904128
1.24387	98666943.37800689
1.24673	133630920.66837052
1.24959	113268965.56246075
1.25245	72464496.38758376
1.25532	127723052.02972864
1.25818	151755986.37289396
1.26105	163656201.19456387
1.26392	148820936.53824925
1.26678	160648571.64314497
1.26965	149581649.02796093
1.27252	164472685.28836736
1.27538	167582665.4116721
1.27825	163251349.8531485
1.28112	162675360.3114855
1.28399	132043081.69362739
1.28686	138432053.5216665
1.28973	135361527.48909855
1.2926	136469660.37083745
1.29546	116510625.51416092
1.29833	106545179.00371268
1.3012	128001983.76129301
1.30407	133132600.0563708
1.30694	111145496.58061378
1.30981	119112332.36506316
1.31267	119705913.21712823
1.31554	98107179.39843327
1.31841	89003415.58736563
1.32128	104342582.95344968
1.32414	71296725.67361622
1.32701	44921737.62722806
1.32987	32568688.152690332
1.33274	18930394.00936698
1.3356	13525431.21341172
1.33847	3287920.5560109885
1.34133	2593985.904005875
1.34419	3631094.356678403
1.34705	2744352.838860552
1.34991	3516645.7120802775
1.35277	3966714.587532078
1.35563	1479376.9654344514
1.35849	1456678.7723674448
1.36135	2143671.7731490554
1.3642	3471217.6694164937
1.36706	3194027.968097284
1.36991	2929591.1996862823
1.37277	3138707.1497230898
1.37562	2646580.53570823
1.37847	2136567.7257910306
1.38132	2840949.6463292055
1.38417	1398608.7006326525
1.38701	444461.0324158031
1.38986	2232181.834129643
1.39271	3088294.034266288
1.39555	1724159.6938491499
1.39839	2741836.9911757987
1.40123	3752964.015940671
1.40407	3706943.442497084
1.40691	2784340.6577372635
1.40974	1974320.570143706
1.41258	3034475.2463856684
1.41541	3460787.923103991
1.41824	1598659.2559082264
1.42107	992982.082959108
1.4239	1059150.0742069392
1.42673	3656217.5131123867
1.42955	5017958.664730774
1.43237	3233856.7495488278
1.43519	4931592.686350748
1.43801	5573104.459834011
1.44083	4804853.885035332
1.44365	5782872.491970115
1.44646	4906876.653462316
1.44927	6827077.462655346
1.45208	10222043.489898976
1.45489	7407717.797627475
1.45769	11690815.17985546
1.4605	10887124.710690804
1.4633	6457020.179123223
1.4661	11023537.656752937
1.4689	10637752.598885482
1.47169	10382759.96746144
1.47449	9964265.286500884
1.47728	10419156.937638197
1.48007	10471208.268399058
1.48286	12562010.448107822
1.48564	11939774.965712827
1.48842	12357900.416698506
1.4912	14301278.513436994
1.49398	12060345.597048176
1.49676	15982531.046572901
1.49953	17206263.03456879
1.5023	22207320.552370414
1.50507	26044482.811764244
1.50784	22126259.072856214
1.51061	25423761.14804085
1.51337	26800176.78368633
1.51613	21306794.40664051
1.51888	18979459.414291788
1.52164	23707651.82796281
1.52439	29852504.22992011
1.52714	25548731.390954223
1.52989	27764594.866954654
1.53263	33864663.15534695
1.53538	39703489.174073584
1.53812	36982687.699428566
1.54086	32361906.97130582
1.54359	30158335.751991477
1.54632	39344312.54360818
1.54905	40538755.57957402
1.55178	39835497.18629086
1.5545	41367963.33360041
1.55723	44305657.7492301
1.55995	49220598.062023155
1.56266	46506236.1224282
1.56538	53034666.45658952
1.56809	62026548.84713476
1.5708	59361550.75328221
1.57351	59401170.60611315
1.57621	59580838.17534113
1.57891	59024267.18077345
1.58161	63486574.00037295
1.5843	63118737.09331708
1.587	63436735.286405995
1.58969	60175180.58476805
1.59238	56213877.88616016
1.59506	61571828.54345995
1.59774	64068294.32840498
1.60042	59691815.66882231
1.6031	55373392.46503326
1.60577	50969386.1489375
1.60844	47074367.014984265
1.61111	50011245.00925169
1.61378	47333480.75646027
1.61644	43585397.725214705
1.6191	39661651.403136246
1.62176	44478694.56342351
1.62441	44210265.68332039
1.62707	45222433.48420969
1.62971	42691269.400093704
1.63236	45160357.341103256
1.635	51235157.77157445
1.63764	55622907.40475786
1.64028	44536076.58268575
1.64292	45551705.65456413
1.64555	39558064.38112742
1.64818	40482185.79372965
1.65081	49420707.92713153
1.65343	47692154.194479324
1.65605	38297672.64901544
1.65867	38824162.69985478
1.66128	50850099.57799839
1.6639	42017875.29749209
1.66651	13374914.032976476
1.66911	6599008.594722309
1.67172	19624154.46621171
1.67432	31614852.456821166
1.67692	38470069.01631225
1.67951	35565001.62165951
1.68211	30076474.736420583
1.6847	22103585.862919807
1.68728	22674393.22672288
1.68987	22271585.11709296
1.69245	18301528.755550396
1.69503	17364734.11129114
1.6976	16775042.13959623
1.70018	17592008.26665381
1.70275	13870602.849184554
1.70531	13191224.133468017
1.70788	18379153.148129497
1.71044	22990636.264363438
1.713	26932727.656253554
1.71556	28178694.75058387
1.71811	28304509.759135745
1.72066	23462322.02153803
1.72321	15069739.246538963
1.72575	19463760.743238546
1.7283	24377670.86750402
1.73084	23922404.102190915
1.73337	17756043.78848855
1.73591	16183373.196527937
1.73844	18345939.543719716
1.74097	17017536.614534542
1.74349	15717117.137331547
1.74602	17761341.172005378
1.74854	22786175.83173458
1.75105	22520887.626932573
1.75357	16117471.319339132
1.75608	10551064.28700687
1.75859	10782319.80099986
1.7611	10771988.000352867
1.7636	11682462.13197313
1.7661	11131859.989143023
1.7686	9288169.475210853
1.7711	10702061.608557547
1.77359	9556173.596211474
1.77608	6695290.74238908
1.77857	8288740.20555883
1.78105	9864381.394844793
1.78354	7113781.687255162
1.78602	5976702.6015878925
1.78849	7570479.726851926
1.79097	6781764.834802051
1.79344	5928888.47048013
1.79591	7178955.661718274
1.79837	9844651.694033941
1.80084	6658589.465910537
1.8033	5629277.267160215
1.80576	5801415.531864993
1.80821	5818691.268985021
1.81067	5919330.823121768
1.81312	7180434.514573516
1.81557	7755765.95241113
1.81801	5169701.179099064
1.82046	4342326.134003354
1.8229	5617524.842182211
1.82533	4992563.522669829
1.82777	4256121.787371538
1.8302	4704604.872040947
1.83263	4584845.780496626
1.83506	4252040.376574403
1.83749	4394946.619077856
1.83991	4835757.621314562
1.84233	5638011.772608765
1.84475	6778543.089290219
1.84716	5492388.853732172
1.84957	5888221.8381456155
1.85198	7043028.493970273
1.85439	5397528.43271235
1.8568	3415745.020438468
1.8592	2380102.9036178594
1.8616	2781067.9544914896
1.864	3094753.864745599
1.86639	2637110.695079204
1.86878	2249305.766864945
1.87118	3400352.3157702154
1.87356	3882589.014694795
1.87595	4190926.9952413538
1.87833	6978112.233935027
1.88071	9032487.894093111
1.88309	7704166.536607955
1.88547	6777019.771915651
1.88784	8033215.205272357
1.89021	8680039.812512541
1.89258	10048945.195170367
1.89494	11854828.687017994
1.89731	10286366.225382105
1.89967	7389270.321481013
1.90203	7350468.7909784
1.90439	7482263.052983637
1.90674	9741895.10995397
1.90909	10556496.659716686
1.91144	6184073.706895418
1.91379	5371272.245701065
1.91613	8812504.036646968
1.91848	9939395.83307662
1.92082	7283246.952310546
1.92315	5973296.83118445
1.92549	6599837.214288496
1.92782	6673770.207771599
1.93015	5255531.806364508
1.93248	4148730.1190611636
1.93481	3800867.466311123
1.93713	3021788.9905019444
1.93945	2726677.429671636
1.94177	4975819.794805085
1.94409	6455621.665727684
1.94641	6061389.079291464
1.94872	6363348.257564654
1.95103	8204115.174984352
1.95334	7884821.217643904
1.95564	5627921.753336897
1.95795	4902767.125968018
1.96025	4118445.1059477455
1.96255	3870962.7712135427
1.96484	5811734.402904742
1.96714	7241425.461596066
1.96943	6951729.665111421
1.97172	7773502.7037919015
1.97401	8147968.374191763
1.97629	7983016.539859051
1.97858	8348251.322629869
1.98086	6985531.4913500445
1.98314	5494426.045977489
1.98541	7042117.2111610165
1.98769	9552530.821945108
1.98996	8800725.615567597
1.99223	7833627.2149970485
1.9945	9476116.414717719
1.99677	10230128.866874212
1.99903	9399038.407344393
2.00129	9102855.397216922
2.00355	9739724.44437664
2.00581	10955675.295830892
2.00806	10949625.719455078
2.01031	11432302.286029274
2.01256	14653386.061688328
2.01481	15935343.181594674
2.01706	13552102.6752998
2.0193	13362474.349031592
2.02154	15998528.49002883
2.02378	16732152.24447252
2.02602	14543927.479552586
2.02825	13510989.284420885
2.03049	14868436.051297288
2.03272	17366839.057942174
2.03494	18156362.866945677
2.03717	17365639.872278698
2.03939	17362644.0331318
2.04162	19410104.959417615
2.04384	21493221.759740952
2.04605	21808584.878765058
2.04827	20518530.883107223
2.05048	20321669.608710855
2.05269	20002097.60376621
2.0549	18334288.485827014
2.05711	19878571.166476425
2.05931	21420555.064378735
2.06151	21177107.04964309
2.06371	21354942.075953614
2.06591	21109994.017478812
2.06811	21820197.229932137
2.0703	23562301.147471186
2.07249	24701036.89860123
2.07468	24375760.19955554
2.07686	23583707.284035824
2.07905	23925410.358083155
2.08123	24743646.525789987
2.08341	25128404.547885127
2.08559	24848355.557147674
2.08776	24964714.232650407
2.08994	25437367.589769263
2.09211	25292321.474905778
2.09428	25578180.294212226
2.09645	26198584.897194624
2.09861	25534844.795153685
2.10077	24147395.556580048
2.10293	23801835.00928071
2.10509	24593504.25588455
2.10725	24776990.27964306
2.1094	23112526.366264287
2.11155	20600926.642046236
2.1137	20037686.71133051
2.11585	20757777.860275265
2.11799	21570199.067904018
2.12013	22724012.357315995
2.12227	23123057.317930304
2.12441	23226877.916523803
2.12655	23024052.84167189
2.12868	22129280.666990332
2.13081	21698438.59959616
2.13294	21498597.13350367
2.13507	20162581.370642357
2.13719	19245233.576648433
2.13931	20155086.67165133
2.14143	20844337.873449057
2.14355	19923794.02774793
2.14567	18295869.842889946
2.14778	16325222.871999921
2.14989	15174985.495539688
2.152	15390161.757360892
2.1541	15409332.801505186
2.15621	15068307.89898458
2.15831	14368775.36451555
2.16041	13020499.786372382
2.16251	12724858.484022371
2.1646	13230614.887916619
2.1667	13478432.47950799
2.16879	14115222.45373737
2.17087	14808434.202568188
2.17296	14464960.03377338
2.17504	13988578.239948833
2.17713	13977473.836604321
2.1792	13200374.182977999
2.18128	11149722.151375635
2.18336	9075130.57632909
2.18543	8633537.125094464
2.1875	8863538.024722334
2.18957	8452586.822817905
2.19163	8183631.990422525
2.1937	8255948.121365849
2.19576	7326327.6806566445
2.19782	5277126.75025663
2.19987	3343818.8939001397
2.20193	2478178.846009383
2.20398	2350349.747143566
2.20603	2319952.8501326297
2.20808	2448977.9765207763
2.21012	2669906.404603657
2.21217	2879493.078736239
2.21421	3371168.5677849143
2.21625	3887803.42974601
2.21828	4059719.6019403515
2.22032	4226690.599909157
2.22235	4386468.24796186
2.22438	4231774.735803859
2.22641	3658685.8157801093
2.22843	3378815.560886344
2.23046	3217500.3854105277
2.23248	2681294.786793302
2.2345	2143832.779041939
2.23651	1873623.9944235838
2.23853	1873769.715842215
2.24054	2152389.3226782167
2.24255	2564677.9601000505
2.24456	2920919.4292822257
2.24657	3088211.3894556314
2.24857	3026689.300590649
2.25057	2744745.994490094
2.25257	2336927.2262782324
2.25457	1951862.290140692
2.25656	1765895.7159546642
2.25856	1743349.0240011623
2.26055	1714367.6834847378
2.26254	1513605.488410397
2.26453	1381171.7388903669
2.26651	1470769.959690372
2.2685	1571577.1391761482
2.27048	1592118.8919526865
2.27246	1691886.236166947
2.27443	1715129.3475824646
2.27641	1748173.8945635846
2.27838	1902440.8599870924
2.28036	1911659.7312603863
2.28233	1721795.9391925428
2.28429	1520682.0174821261
2.28626	1340167.0786048905
2.28823	1179722.305329219
2.29019	1069193.1341765544
2.29215	993914.9652077802
2.29411	993802.2432116725
2.29607	1076949.318802994
2.29802	1274878.2666459878
2.29998	1562458.3990690182
2.30193	1915911.6110458237
2.30388	2213845.5845171567
2.30583	2360090.913658645
2.30778	2528344.998357584
2.30972	2874506.5215893937
2.31167	3244126.287985752
2.31361	2969552.2851979234
2.31555	2110360.823043952
2.31749	1287933.543947392
2.31943	1033050.7570652798
2.32137	960994.2022070605
2.32331	845856.128911733
2.32524	715061.4391377941
2.32718	596245.0200432519
2.32911	538951.2847764514
2.33104	578371.7927992848
2.33297	694578.2393233126
2.3349	888787.2827334185
2.33683	1170159.3681295277
2.33876	1382258.2289621194
2.34068	1479135.0450731479
2.34261	1520576.2003898246
2.34453	1586578.7676410368
2.34646	1683320.2215416974
2.34838	1743384.7475104355
2.3503	1669083.0391471684
2.35223	1616957.6687483215
2.35415	1537148.869660097
2.35607	1386839.9204852416
2.35799	1483874.6212269377
2.35991	1802615.0425595061
2.36183	2095293.8452460475
2.36375	2283754.93865144
2.36566	2474049.6255907067
2.36758	2388017.7173936446
2.3695	2061707.0373618766
2.37142	1761185.9863173745
2.37334	1608906.2326040727
2.37526	1406040.2860248263
2.37718	1183774.9318188415
2.3791	1085729.067551317
2.38101	1072075.049068849
2.38293	1101471.034058578
2.38485	1234644.7271536493
2.38677	1569569.6293577822
2.3887	1892113.8799479983
2.39062	1943658.1432245048
2.39254	1911221.612107617
2.39446	2043441.9108501084
2.39639	2174117.3787940177
2.39831	2108500.5676829107
2.40024	2106000.0961294523
2.40216	2275448.500622113
2.40409	2586971.0523238843
2.40602	2632499.105089921
2.40795	2495525.6676225443
2.40989	2613996.418568201
2.41182	2972768.866452434
2.41376	3117126.2517960933
2.4157	3218947.7499621455
2.41764	3259159.853035246
2.41958	3202570.152874649
2.42152	3030589.6237991196
2.42347	2951258.129275806
2.42542	2952043.8913077055
