#wavelength	surface flux
0.676892	25561.950167172534
0.678297	27144.935788739345
0.679702	28688.509500527416
0.681109	30216.401203600806
0.682517	31520.921572945706
0.683926	32869.01947152725
0.685337	34124.78010122588
0.686749	35142.05862711058
0.688164	35946.1646304527
0.689581	36459.0997457849
0.691	36561.7279434881
0.692422	35344.76470140342
0.693847	36167.74292461757
0.695274	36115.523658006336
0.696705	36189.55320712508
0.698139	36417.74527243461
0.699576	35724.673501296886
0.701017	34974.28451378795
0.702461	33763.48608985831
0.70391	33455.044854270534
0.705362	32164.534034077027
0.706819	31025.41119723547
0.70828	30067.14679814271
0.709745	28196.90142969962
0.711216	26555.136580846836
0.71269	25133.15970308932
0.71417	23737.55052553286
0.715655	20515.136528894916
0.717145	17664.020113264156
0.71864	15434.659033424456
0.72014	14381.35478042397
0.721647	13700.556640190764
0.723158	13978.077418297806
0.724676	12246.394496619881
0.726199	10721.191040570964
0.727728	9066.518856949957
0.729264	9158.987485073447
0.730805	8039.592036496216
0.732353	8282.194943461158
0.733907	7624.716338540753
0.735468	6242.88920731353
0.737035	6528.418979404113
0.738609	6007.364934724619
0.74019	5557.679886597297
0.741777	5117.245418108117
0.743372	4835.816367446155
0.744973	4454.338623547307
0.746582	4058.119573617307
0.748197	3655.4679912364827
0.74982	3423.9633512861833
0.751451	3115.003011826458
0.753088	2819.3069247405156
0.754734	2526.4749776683657
0.756386	2217.508790850618
0.758047	1896.9381443054422
0.759715	1558.2793590911494
0.76139	1196.7089198644333
0.763074	804.5322758242083
0.764765	388.82655048705357
0.766464	113.28618646990314
0.768172	245.99997990696048
0.769887	173.47007049274654
0.77161	617.3315480424051
0.773341	1256.3900960960916
0.775081	1872.392004510973
0.776829	2494.1806703180523
0.778585	2890.3726011021936
0.780349	2860.686233309563
0.782121	4461.152025210435
0.783902	5298.10277121489
0.785691	6135.631095853324
0.787489	7222.2578029237575
0.789295	8408.347518223409
0.79111	9679.922659195066
0.792933	10207.986921874679
0.794764	7666.036216940628
0.796604	13296.879341967366
0.798453	16531.631909804255
0.80031	19324.732922127285
0.802176	22084.6426545743
0.804051	25998.64369369882
0.805934	29251.867483066224
0.807826	33540.23159332148
0.809727	37492.696635728505
0.811636	40692.12048726452
0.813554	42398.68031265212
0.81548	50351.98326046996
0.817416	60834.63114602112
0.81936	68912.1180589786
0.821313	80195.99797323535
0.823274	87053.02449211499
0.825244	93231.0335917688
0.827223	115300.67899091472
0.829211	123333.8733418178
0.831208	133161.7927017713
0.833213	158004.72993433004
0.835227	173133.76410984056
0.837249	169991.37744098526
0.83928	206841.88378690396
0.841321	236542.98688382952
0.843369	257267.7158137934
0.845427	277549.2042625263
0.847493	330521.7534863204
0.849567	323994.395254638
0.851651	247079.93153627892
0.853742	389808.2541808113
0.855843	463966.66967491206
0.857952	504523.72012220527
0.86007	553766.0366713414
0.862196	558530.0923368514
0.864331	599073.1315980544
0.866474	677048.4090636591
0.868626	748478.3110912681
0.870786	792729.8810801508
0.872955	872114.3302442143
0.875132	899214.738440293
0.877317	972818.1000954895
0.879511	1003862.0516000853
0.881713	746421.5578084035
0.883923	593659.5055860034
0.886142	662715.5424855197
0.888369	554711.8481702991
0.890604	631223.5032012523
0.892847	510143.95896209334
0.895099	419270.4317942286
0.897358	771227.5711656242
0.899626	941387.3572434143
0.901901	1194388.3694606174
0.904185	1696376.1708535263
0.906476	1973503.7854709108
0.908776	1674628.8583099644
0.911083	1920323.5657890397
0.913398	1697932.6180685759
0.915721	2079350.3952691744
0.918051	1988854.1674126964
0.92039	2186833.413589883
0.922736	2075301.1831260007
0.925089	1552621.9233893063
0.927451	854816.2620953438
0.929819	370932.7353601524
0.932195	267059.40392056556
0.934579	247544.85005920046
0.93697	1190165.2301944804
0.939369	1577551.2722233266
0.941774	1205407.1752318551
0.944187	976264.0307940432
0.946607	1374871.440676979
0.949035	1765178.4962016928
0.951469	743315.013999018
0.953911	906758.2584005449
0.956359	889519.0112580991
0.958814	1280443.8238999788
0.961277	615100.8775899266
0.963746	989105.125153395
0.966222	1302840.4021171324
0.968705	1682736.4942805853
0.971194	1851827.2241870048
0.97369	1655041.6121533392
0.976193	2219457.6280482663
0.978702	2040739.4227990718
0.981217	1862758.3811182964
0.983739	1303912.235244284
0.986268	2075334.8934032025
0.988802	2235568.2383512524
0.991343	2074331.7545057447
0.99389	2852062.6452555014
0.996444	3375108.1487805005
0.999003	2438880.018274586
1.00157	3731667.3725753417
1.00414	4640228.362256911
1.00672	5848231.504932427
1.0093	5528911.454105692
1.01189	6284370.915477272
1.01448	6851220.704834354
1.01708	7591669.628789398
1.01969	7954489.958214358
1.0223	8259262.146033476
1.02492	8596728.1620416
1.02754	9677010.192057626
1.03017	10430854.053765727
1.0328	9740467.538499128
1.03544	11618965.784838371
1.03808	13489544.381198538
1.04073	12339894.0332784
1.04339	13361772.15941049
1.04604	14056952.599313164
1.04871	14667135.597182807
1.05138	15220547.089133127
1.05405	17235193.21100967
1.05673	16716811.337322092
1.05941	18281330.841751892
1.0621	18162679.57666399
1.06479	18233695.662569966
1.06749	18206721.193431865
1.07019	19850874.39249684
1.07289	19420136.866259605
1.0756	19055476.902374018
1.07832	17390782.146806784
1.08104	18231360.201453637
1.08376	17028379.18172809
1.08649	14720559.898723723
1.08922	9442839.31122903
1.09195	6761216.338994625
1.09469	5183583.157554239
1.09743	4259677.262536545
1.10018	3111422.47330473
1.10293	2062283.337171326
1.10568	1476877.6366228687
1.10844	1680079.6504163023
1.1112	882787.5331755477
1.11396	748075.0165389084
1.11673	452039.601695605
1.1195	574999.6342171475
1.12228	289841.1670925043
1.12505	636565.5266648554
1.12783	921938.7855822138
1.13062	1124772.831878073
1.13341	195193.90072214897
1.1362	318312.46440729476
1.13899	755033.1120147995
1.14178	1252175.5119474726
1.14458	792455.4743877723
1.14738	595513.0441566531
1.15019	1172079.7987255673
1.153	694532.146139762
1.1558	437194.6959650147
1.15862	831820.0404665588
1.16143	282008.6121406295
1.16425	173933.0293648232
1.16707	546533.3588585005
1.16989	730093.1399594772
1.17271	1120962.731271777
1.17554	1458274.3848566627
1.17837	882903.9826207649
1.1812	2588780.4813091853
1.18403	3359234.0259729414
1.18686	2657231.335637314
1.1897	3647182.4714848096
1.19253	4131813.4603601103
1.19537	5111410.2306234585
1.19822	4521203.151365003
1.20106	5286096.596706688
1.2039	6946968.674039644
1.20675	8856941.359643789
1.2096	9270475.835154396
1.21245	9278505.426442564
1.2153	10262939.917250406
1.21815	9019065.151176596
1.221	10615005.612087278
1.22385	12686312.886997899
1.22671	13367723.872552846
1.22957	17194973.70175118
1.23242	17300240.092135977
1.23528	16718666.327476932
1.23814	18132892.093286213
1.241	20518974.969442103
1.24387	19123369.15286698
1.24673	22765243.166081663
1.24959	20903757.477623444
1.25245	17000326.951127607
1.25532	25774747.43788416
1.25818	26510321.016726214
1.26105	27389328.15958703
1.26392	18654085.00836811
1.26678	22091450.08924088
1.26965	16991129.035625875
1.27252	22168871.448919345
1.27538	23448793.749298047
1.27825	19572463.695495144
1.28112	19948891.82061793
1.28399	14409851.060512187
1.28686	12811474.798660498
1.28973	12184662.06428191
1.2926	11824583.051934939
1.29546	9640695.78986135
1.29833	8714560.557969926
1.3012	11555593.331102964
1.30407	11551982.45128049
1.30694	8955843.8853333
1.30981	8489294.796119675
1.31267	9688448.176664207
1.31554	6527421.295853494
1.31841	5615355.9702018015
1.32128	8171964.642190979
1.32414	4454647.947579767
1.32701	2313021.928139319
1.32987	1056495.1669735059
1.33274	1083629.7468699585
1.3356	753423.2526193406
1.33847	102468.16671263314
1.34133	90783.9113099888
1.34419	118627.9460754342
1.34705	60011.77201223524
1.34991	108751.26285858011
1.35277	84193.29907719312
1.35563	29588.48367758699
1.35849	19679.580486194143
1.36135	32888.380598199714
1.3642	74253.71505912681
1.36706	40509.87531808334
1.36991	31313.933207918693
1.37277	41807.1881636514
1.37562	32784.23756137851
1.37847	28423.832893454728
1.38132	71075.46404408691
1.38417	18402.144916798403
1.38701	4976.274931667438
1.38986	41027.92863492211
1.39271	96883.19255852666
1.39555	33812.133065689384
1.39839	28600.258830031507
1.40123	46540.26405460521
1.40407	36446.771252327686
1.40691	32124.264909156547
1.40974	22723.47200637992
1.41258	67725.3049856636
1.41541	101367.37092317457
1.41824	42299.83394334136
1.42107	9558.259444197405
1.4239	15100.142673254968
1.42673	96306.02988428043
1.42955	194645.15742599065
1.43237	111833.17538511784
1.43519	217186.73792444248
1.43801	209273.01874628785
1.44083	136224.9897488622
1.44365	147409.23606554285
1.44646	144389.9535900445
1.44927	276175.8135951868
1.45208	609844.3815211208
1.45489	444345.4572732833
1.45769	636843.3839504853
1.4605	440379.5411569751
1.4633	325657.84772203694
1.4661	608457.8608351502
1.4689	524357.4075000357
1.47169	345409.34203981975
1.47449	315241.1631751917
1.47728	370141.0202869178
1.48007	314629.51645108516
1.48286	382089.6478077639
1.48564	461408.8551259923
1.48842	597391.1338898332
1.4912	732077.3773559915
1.49398	298824.4352169121
1.49676	450781.6241233666
1.49953	627246.6290848792
1.5023	1090668.0405858243
1.50507	1349810.6871619371
1.50784	1144749.0409611529
1.51061	1081608.7879202312
1.51337	1103954.7209881346
1.51613	719722.6632623583
1.51888	567009.1001756031
1.52164	1015863.4639603102
1.52439	1533559.6518705755
1.52714	1175529.941644411
1.52989	1433263.4388663243
1.53263	1985751.7704741932
1.53538	2384333.0498285815
1.53812	2169701.9823508584
1.54086	1447159.2551431279
1.54359	1639968.4785702652
1.54632	2320967.410788029
1.54905	2206313.218876453
1.55178	2233318.6006252877
1.5545	2287848.762180845
1.55723	3432108.3811867186
1.55995	4202235.684903464
1.56266	3010075.9597464246
1.56538	5812503.212091745
1.56809	7643013.527812787
1.5708	6331852.759659352
1.57351	5586092.337842392
1.57621	5754724.795997518
1.57891	5578950.0967445
1.58161	7237025.313442219
1.5843	6375588.821643029
1.587	6129865.313461757
1.58969	5899898.793824753
1.59238	4794812.375650918
1.59506	6184594.0637405515
1.59774	6775214.880395711
1.60042	5301515.344502718
1.6031	3795104.3102427977
1.60577	3443009.824490112
1.60844	2611660.215622803
1.61111	2151325.40406492
1.61378	1632926.0129263946
1.61644	1729357.0585657551
1.6191	1449674.9580708959
1.62176	1795142.30098412
1.62441	2281949.9189340826
1.62707	2896922.4030715115
1.62971	3250897.7799503994
1.63236	2090613.621238539
1.635	3134893.762504157
1.63764	3784177.0405743676
1.64028	2723156.1517790104
1.64292	1925821.9555703604
1.64555	1125770.270625661
1.64818	839845.8001300773
1.65081	2260523.8438256783
1.65343	3078702.8044653786
1.65605	1677443.6529199202
1.65867	1162958.022616877
1.66128	2060349.468644673
1.6639	1457001.0742659727
1.66651	286068.293335289
1.66911	49283.90398773551
1.67172	259014.35369189913
1.67432	683256.2680585952
1.67692	1268826.4977957027
1.67951	928915.0562904073
1.68211	481789.0587508115
1.6847	273965.62144157256
1.68728	188791.1231464756
1.68987	184057.4522622035
1.69245	148030.24480986822
1.69503	117252.90800237708
1.6976	119310.94358140643
1.70018	125286.34567496748
1.70275	74245.72346338817
1.70531	125014.09276382904
1.70788	228342.69725701574
1.71044	544919.6831713138
1.713	1026012.7745927712
1.71556	1161021.0806979754
1.71811	1077688.5456571865
1.72066	651225.3546497258
1.72321	344333.96052101796
1.72575	710829.349974851
1.7283	989323.923196546
1.73084	989879.3555613497
1.73337	475563.63872031873
1.73591	296143.3775010721
1.73844	515096.06144576735
1.74097	526342.6107054008
1.74349	617506.9092821487
1.74602	894392.8872963216
1.74854	1134250.1614163679
1.75105	1214006.1714255537
1.75357	918629.7000422545
1.75608	373627.47720413114
1.75859	225280.80249438065
1.7611	189675.23461368977
1.7636	297471.5837702451
1.7661	399386.73373413
1.7686	353007.36220366985
1.7711	502026.28434307553
1.77359	352841.688546247
1.77608	193807.18537810838
1.77857	530753.4914784007
1.78105	823045.6742322671
1.78354	500133.86595726194
1.78602	294400.82618966076
1.78849	314263.35504379985
1.79097	269201.0513466489
1.79344	235923.0792838514
1.79591	311054.76174882334
1.79837	569088.8664353321
1.80084	381920.40816174616
1.8033	262394.71225101926
1.80576	267840.79756546335
1.80821	307334.6477471099
1.81067	324299.2422407015
1.81312	435209.7169395538
1.81557	422002.3350001115
1.81801	174317.76496755623
1.82046	151274.7969542547
1.8229	292492.2926321623
1.82533	236245.82784587002
1.82777	150638.30545143576
1.8302	175651.29784354282
1.83263	160459.95174761585
1.83506	104705.31721074985
1.83749	98755.6091455967
1.83991	155657.26359984625
1.84233	277663.27306976524
1.84475	440165.84605337016
1.84716	291716.4550897994
1.84957	258026.6554239525
1.85198	369591.1705460324
1.85439	274225.31019230105
1.8568	139636.19961598053
1.8592	76133.69043357355
1.8616	111303.79198147729
1.864	133796.81955927398
1.86639	85662.8525023032
1.86878	54696.410860784265
1.87118	102018.27714343574
1.87356	120824.69117494585
1.87595	181928.08659824255
1.87833	496677.92799024034
1.88071	617650.2801786149
1.88309	407633.39844938007
1.88547	350236.65364610375
1.88784	476335.3498220013
1.89021	524832.2160837862
1.89258	642157.6152094299
1.89494	991295.4102815902
1.89731	868425.6679672151
1.89967	422763.3449663644
1.90203	338289.41395744495
1.90439	321179.6145213546
1.90674	390391.3543179202
1.90909	367273.931182712
1.91144	140329.44997586354
1.91379	114699.26177023184
1.91613	294179.95285171195
1.91848	357112.07160040824
1.92082	207513.28932545008
1.92315	164189.4191345857
1.92549	191536.27897471617
1.92782	178351.13088071707
1.93015	119331.36113725687
1.93248	64524.244402016055
1.93481	61668.204921981036
1.93713	73709.48598039991
1.93945	91814.6361504384
1.94177	189190.4971533869
1.94409	219433.8949832459
1.94641	194441.95291439825
1.94872	176862.76126962228
1.95103	214682.25154793833
1.95334	237292.25387885908
1.95564	218256.40528919283
1.95795	227638.19172319246
1.96025	165406.56975727848
1.96255	134857.60092723015
1.96484	242650.48357740763
1.96714	345004.78021661186
1.96943	342988.001847838
1.97172	384727.93430303625
1.97401	361988.06779430463
1.97629	300539.36453976313
1.97858	337316.9982551097
1.98086	280289.6921887032
1.98314	188131.84401503173
1.98541	301350.5496561245
1.98769	500508.29845195333
1.98996	483464.8673643331
1.99223	426248.82726242347
1.9945	575130.4406030921
1.99677	718259.9810787083
1.99903	755319.0093626227
2.00129	711171.2493592192
2.00355	609564.9850699801
2.00581	683262.0277916343
2.00806	876231.3950153614
2.01031	888812.6407526898
2.01256	950340.8479320403
2.01481	1002031.3172265587
2.01706	857208.5712632276
2.0193	761046.6295625592
2.02154	881943.534518457
2.02378	1039967.6371351389
2.02602	1023191.2188664628
2.02825	922454.895505616
2.03049	949181.4028232632
2.03272	1130809.4965310467
2.03494	1259440.2365909738
2.03717	1225785.8061385134
2.03939	1270822.2511799773
2.04162	1655636.2753910674
2.04384	2010049.74467063
2.04605	2111189.7115794914
2.04827	1954085.1173412332
2.05048	1924833.5454605487
2.05269	1990113.0965174285
2.0549	1748004.6454546014
2.05711	1651809.6216657984
2.05931	1676241.8051832987
2.06151	1906157.658822727
2.06371	2166192.5128760813
2.06591	2081268.678827547
2.06811	2040559.892998648
2.0703	2352585.75684878
2.07249	2785248.843076964
2.07468	3008926.3426215164
2.07686	2986974.973157805
2.07905	2818459.9451362346
2.08123	2568151.5616828506
2.08341	2494797.001206671
2.08559	2591472.4430559888
2.08776	2744490.4701706283
2.08994	2838364.774693662
2.09211	2705977.638935451
2.09428	2625350.44573873
2.09645	2703976.6702235127
2.09861	2576060.7431485374
2.10077	2335688.6333048334
2.10293	2340775.4417488547
2.10509	2527244.209956209
2.10725	2589462.3586876113
2.1094	2277492.684308165
2.11155	1831812.7055401632
2.1137	1748149.1565908166
2.11585	1854112.2223537033
2.11799	2022437.857600478
2.12013	2244282.090456533
2.12227	2256638.4873287897
2.12441	2184053.75033989
2.12655	2106805.4821092337
2.12868	2001089.8008149648
2.13081	1943927.1688614467
2.13294	1832741.6443639179
2.13507	1588021.988780567
2.13719	1420442.4425455546
2.13931	1567218.3236567467
2.14143	1681073.3121664706
2.14355	1448191.0018422499
2.14567	1170270.8986991367
2.14778	977586.2225681917
2.14989	887846.9449733101
2.152	949340.707120364
2.1541	986529.6215847625
2.15621	937611.6759972267
2.15831	802975.5523486497
2.16041	540751.3620551736
2.16251	364695.88251402375
2.1646	377506.58248611516
2.1667	435953.4775178981
2.16879	531578.4475415653
2.17087	679287.2048730035
2.17296	739017.3391175924
2.17504	759236.471760261
2.17713	805182.6548849588
2.1792	753199.3700311978
2.18128	598322.9594065511
2.18336	434346.27201401617
2.18543	370432.49089676194
2.1875	352297.8976232733
2.18957	283323.2583213858
2.19163	218704.27492783903
2.1937	215066.9581334456
2.19576	197408.36822862344
2.19782	124844.30814002783
2.19987	54232.4010401704
2.20193	30446.104040999886
2.20398	35353.30028518365
2.20603	41025.655309387315
2.20808	45735.20896769901
2.21012	47621.186927263414
2.21217	50056.90422702025
2.21421	66757.33828399381
2.21625	79638.9638207365
2.21828	72974.13078466975
2.22032	64886.436695033415
2.22235	69652.59019379533
2.22438	81132.64340524132
2.22641	77863.21582517454
2.22843	66383.54059625928
2.23046	51535.6724030001
2.23248	33640.82943792668
2.2345	22668.525911690616
2.23651	17573.533346640736
2.23853	17645.02711408608
2.24054	26347.4167969667
2.24255	37608.647154128856
2.24456	43593.30577017229
2.24657	42217.89436439622
2.24857	36152.54896453917
2.25057	28244.856080590613
2.25257	19175.984177431917
2.25457	12374.207823423461
2.25656	10838.632829657012
2.25856	13306.883437341856
2.26055	14414.690557675478
2.26254	14087.509058315884
2.26453	17206.82512413053
2.26651	22143.289515331395
2.2685	21568.951508524675
2.27048	18518.27909656337
2.27246	21687.433333082852
2.27443	24049.209633101935
2.27641	23756.6718739043
2.27838	26568.646816847413
2.28036	28448.351700779844
2.28233	25377.404399058196
2.28429	21134.060095623212
2.28626	17172.6049039076
2.28823	12922.028819093595
2.29019	8600.263277304728
2.29215	5986.952026748598
2.29411	7160.861528991676
2.29607	11119.687169585668
2.29802	15639.60452951793
2.29998	21778.073066329063
2.30193	32225.21382777769
2.30388	42339.00917380927
2.30583	46773.78376984774
2.30778	52640.942414812846
2.30972	70361.55011807644
2.31167	93157.02399474439
2.31361	90831.29272991861
2.31555	60425.72795178476
2.31749	24484.06867171484
2.31943	9770.214392905827
2.32137	7126.711246843253
2.32331	7216.16631955692
2.32524	6768.660559084071
2.32718	6078.782983486178
2.32911	4960.246202975862
2.33104	3941.599496999951
2.33297	5778.109643528951
2.3349	12648.399918678524
2.33683	20720.78202072248
2.33876	22778.325062699467
2.34068	19963.280620607155
2.34261	16820.395497149024
2.34453	15963.838409674221
2.34646	19436.937990970546
2.34838	27716.832892615475
2.3503	33181.0620181455
2.35223	35055.68663768825
2.35415	32851.74894455358
2.35607	29548.559477893537
2.35799	33460.12291964762
2.35991	42807.50311984821
2.36183	51113.303235508676
2.36375	54209.27029693463
2.36566	50759.742331365895
2.36758	38076.90898473196
2.3695	27295.090726755825
2.37142	24442.80426847356
2.37334	27176.189926914383
2.37526	26879.230991371474
2.37718	23651.08125130344
2.3791	21106.749818063392
2.38101	21027.668087884434
2.38293	23769.32231909742
2.38485	28278.437483848633
2.38677	36687.06159958235
2.3887	44351.62776457075
2.39062	44772.77011457539
2.39254	42266.45374318543
2.39446	43525.20371919809
2.39639	48435.95341372568
2.39831	55784.42013658761
2.40024	72193.17803045658
2.40216	88162.15454789842
2.40409	100226.39597691003
2.40602	91860.44554882708
2.40795	73411.29263539439
2.40989	67170.56614166262
2.41182	81786.33091478172
2.41376	96630.12036959255
2.4157	112254.84390713663
2.41764	120869.40551468373
2.41958	115772.30618100456
2.42152	99031.56774032366
2.42347	87412.82505682214
2.42542	93477.92918374154
