#wavelength	surface flux
0.676892	9431.04124713087
0.678297	9775.519936346425
0.679702	10086.133990396926
0.681109	10374.614301704863
0.682517	10599.78112868905
0.683926	10821.173958698382
0.685337	10985.58914693056
0.686749	11105.177889850416
0.688164	11180.292806116424
0.689581	11190.852838979561
0.691	11039.836545035841
0.692422	10544.476804419182
0.693847	10552.090464212253
0.695274	10533.666487942175
0.696705	10559.980314045542
0.698139	10458.380967085288
0.699576	10150.173130607967
0.701017	9892.227160490535
0.702461	9527.133612963664
0.70391	9376.322927051002
0.705362	9075.942012965617
0.706819	8796.244636030011
0.70828	8517.793183036667
0.709745	8118.434203015097
0.711216	7792.054466481637
0.71269	7409.714417280396
0.71417	7135.019939121293
0.715655	6532.761810006322
0.717145	5642.856599954479
0.71864	5188.901998172766
0.72014	5123.69123015862
0.721647	4999.888012606209
0.723158	4792.996473507595
0.724676	4417.5504084126105
0.726199	4094.4639352699833
0.727728	3707.071626605314
0.729264	3695.5509746894545
0.730805	3381.0458665843435
0.732353	3575.462376682716
0.733907	3517.3165310315435
0.735468	3242.8642121185444
0.737035	3211.9820504096724
0.738609	3070.6787515555966
0.74019	2974.8108469928075
0.741777	2871.450025635737
0.743372	2779.2191865652567
0.744973	2659.7708933471104
0.746582	2518.2377036789094
0.748197	2375.710181942062
0.74982	2264.464728135779
0.751451	2136.0111364015434
0.753088	2003.2735479520352
0.754734	1864.538720718303
0.756386	1714.23525741367
0.758047	1535.2309130526392
0.759715	1325.0954205060375
0.76139	1084.8807787700987
0.763074	806.6090309416135
0.764765	442.4706195865223
0.766464	140.666272442399
0.768172	296.2389757764773
0.769887	210.91242116289422
0.77161	665.231494641431
0.773341	1188.0073656259092
0.775081	1623.4446060255025
0.776829	2025.379892579795
0.778585	2121.160294350845
0.780349	1851.1157373640208
0.782121	3092.634506154745
0.783902	3643.9401851635275
0.785691	4114.996671364382
0.787489	4637.049660860562
0.789295	5187.462390383024
0.79111	5759.170624877615
0.792933	5860.081656120556
0.794764	4259.8746786030815
0.796604	7223.530871345358
0.798453	8685.708900712556
0.80031	9715.943240095976
0.802176	10742.154830972544
0.804051	11941.654327447899
0.805934	13066.618648965816
0.807826	14368.571370211528
0.809727	15402.11470905998
0.811636	16115.939092966963
0.813554	16017.235103767656
0.81548	18909.84228309465
0.817416	21879.45646981073
0.81936	24701.24549176831
0.821313	28150.389219156572
0.823274	27989.005275265466
0.825244	32754.29186618716
0.827223	37878.08529341881
0.829211	40726.6949706538
0.831208	43485.18353476054
0.833213	49664.58827117639
0.835227	54320.75969346025
0.837249	58830.485366673485
0.83928	67531.13462091502
0.841321	73798.17864686334
0.843369	82174.73831201415
0.845427	89188.720744832
0.847493	100744.04632828118
0.849567	107599.40474853746
0.851651	89024.5288417581
0.853742	122336.52005938125
0.855843	143598.41023032952
0.857952	155891.70811579408
0.86007	169103.54866966052
0.862196	179564.22180765856
0.864331	193664.29277950135
0.866474	211217.1871996008
0.868626	231658.18645554926
0.870786	251784.0385659412
0.872955	273039.76488337724
0.875132	291013.5740145801
0.877317	304290.38900707295
0.879511	319262.2692362849
0.881713	285816.32350977784
0.883923	268062.5720748309
0.886142	285862.4940359628
0.888369	267626.667764049
0.890604	291025.59088989726
0.892847	236996.11668220104
0.895099	200811.00383932897
0.897358	299091.579811995
0.899626	357908.09566064173
0.901901	469457.38303826144
0.904185	621530.2669778268
0.906476	678552.2013861105
0.908776	575800.651851171
0.911083	648315.1015768647
0.913398	605925.9945852619
0.915721	691343.9597977432
0.918051	675936.3685993454
0.92039	792838.9299636934
0.922736	831831.2874527763
0.925089	670893.9206491893
0.927451	294217.28957628825
0.929819	98908.29984047278
0.932195	103980.36302179005
0.934579	128010.14725908442
0.93697	320439.89383383904
0.939369	556995.5978592777
0.941774	528068.232666692
0.944187	347305.22932971094
0.946607	344011.08931595564
0.949035	394362.25269504904
0.951469	312714.7734951726
0.953911	317821.7203843924
0.956359	226766.04948130215
0.958814	368675.084643504
0.961277	199752.77488088954
0.963746	372725.0209770495
0.966222	502828.3823298399
0.968705	801297.960162097
0.971194	928418.1563090285
0.97369	796625.6547325007
0.976193	1003058.4629147754
0.978702	1061627.2413405306
0.981217	1107421.5986876965
0.983739	1007335.7186117906
0.986268	1329401.0470555327
0.988802	1334927.4873285915
0.991343	1584797.476099035
0.99389	1813774.2506405995
0.996444	2057656.9123798106
0.999003	2200722.5075618625
1.00157	2661186.6524063363
1.00414	2991842.009218661
1.00672	3266845.447513552
1.0093	3228126.742485342
1.01189	3298801.870819512
1.01448	3302657.00429537
1.01708	3259919.4440930793
1.01969	3136358.894118797
1.0223	3460202.8383499454
1.02492	3705310.1755642947
1.02754	3962318.226239103
1.03017	3996383.859261625
1.0328	3589872.007343239
1.03544	4037687.2960901726
1.03808	4292042.420685101
1.04073	4430567.281851098
1.04339	4644288.574664255
1.04604	4937796.398000505
1.04871	4971918.202365315
1.05138	5096043.630120528
1.05405	5330557.264980571
1.05673	5585949.881066087
1.05941	5616806.063370917
1.0621	5735482.357045559
1.06479	5619110.754564431
1.06749	5584192.3428277075
1.07019	5514677.132354502
1.07289	5590015.738743853
1.0756	5557005.760855843
1.07832	5328605.390775082
1.08104	5329429.687041953
1.08376	5399661.156038738
1.08649	4784008.704221767
1.08922	4034672.8988385373
1.09195	3316504.867611838
1.09469	2546124.465027805
1.09743	2007159.3961852787
1.10018	1243552.8387905096
1.10293	720604.5967498906
1.10568	456315.8539257289
1.10844	405033.72725687636
1.1112	164220.50470081953
1.11396	126262.10401318768
1.11673	91091.7486614076
1.1195	109970.6559043862
1.12228	80659.04212716149
1.12505	205794.11885071604
1.12783	200678.08139686738
1.13062	244187.37541037457
1.13341	80501.5742675537
1.1362	122357.21727496467
1.13899	434833.402282142
1.14178	490234.4825952247
1.14458	197537.38208682108
1.14738	193199.96687126154
1.15019	300318.7890559291
1.153	163609.62075556183
1.1558	127477.95261694123
1.15862	212389.01615329666
1.16143	111671.77135008437
1.16425	129042.28815112368
1.16707	195627.31570541966
1.16989	372244.0871852132
1.17271	564338.5325082643
1.17554	694871.3886903039
1.17837	721841.8557600623
1.1812	1239601.1092072825
1.18403	1374613.1581038805
1.18686	1369541.9713257924
1.1897	1677910.51478039
1.19253	1970624.127982971
1.19537	2281767.239796268
1.19822	2387979.929056369
1.20106	2598272.595370526
1.2039	3023253.738822323
1.20675	3467684.218003347
1.2096	3121887.118952482
1.21245	3218022.495615911
1.2153	3600038.7365045114
1.21815	3407440.0118001034
1.221	3995281.3988450444
1.22385	4202567.67068491
1.22671	4686731.688757637
1.22957	5623416.639976598
1.23242	5700290.909445566
1.23528	6076745.260916821
1.23814	6183608.677674401
1.241	6727797.821789126
1.24387	6792266.946867143
1.24673	7556801.303415693
1.24959	7470666.792328603
1.25245	7290844.729543925
1.25532	8336060.200763018
1.25818	8932493.89102968
1.26105	9608542.517996613
1.26392	9508796.870338023
1.26678	9637680.3468573
1.26965	9251021.825336562
1.27252	8813777.226468416
1.27538	8421312.921322137
1.27825	7755808.192445832
1.28112	6821916.903259987
1.28399	5345655.846281758
1.28686	4610105.620016523
1.28973	4470087.800264732
1.2926	4081234.357219971
1.29546	3572491.9417380122
1.29833	3838625.079118253
1.3012	3616724.679770676
1.30407	3715267.5318618496
1.30694	3288659.489053533
1.30981	3347400.532696852
1.31267	2824753.6311415983
1.31554	2263174.4106708067
1.31841	1981338.1831466956
1.32128	2890822.8081472334
1.32414	1859694.1623838572
1.32701	1407059.1877296048
1.32987	536705.5359704249
1.33274	313936.54777162045
1.3356	305395.2982378189
1.33847	40833.56284095893
1.34133	16305.509106934695
1.34419	19186.632296152253
1.34705	8093.331995868725
1.34991	7594.090590667084
1.35277	5359.076039559509
1.35563	2322.8778413559467
1.35849	1360.8310702002925
1.36135	2242.212910763022
1.3642	5580.787294587502
1.36706	3277.7952078265607
1.36991	3980.297870927648
1.37277	4394.060101038889
1.37562	13762.932448739128
1.37847	13483.885783265776
1.38132	3966.48945378126
1.38417	1303.1116510178879
1.38701	1130.1366596528069
1.38986	5579.000275917429
1.39271	9339.498294748648
1.39555	3317.670042709738
1.39839	3384.102623800683
1.40123	6020.789840523858
1.40407	8284.290335247948
1.40691	7564.409339112747
1.40974	4652.261824082649
1.41258	8917.040666359446
1.41541	15263.360211928137
1.41824	7811.638702770581
1.42107	2947.635976781964
1.4239	4350.350213989794
1.42673	17760.272897578507
1.42955	41171.09914840686
1.43237	27010.73143998069
1.43519	45186.693423611054
1.43801	42924.99509985192
1.44083	36479.109572767666
1.44365	55756.319785639374
1.44646	41387.176840454085
1.44927	84480.98639624454
1.45208	151183.96256499842
1.45489	104370.08646776418
1.45769	187234.39036459467
1.4605	188263.31677603358
1.4633	111285.06833066438
1.4661	146658.95230693248
1.4689	119315.47557782306
1.47169	82148.84380648179
1.47449	57758.28633269399
1.47728	47341.32732541287
1.48007	50918.630837408804
1.48286	97723.59001220821
1.48564	85160.35891452896
1.48842	54627.88175798412
1.4912	85078.42036839966
1.49398	70960.34306746248
1.49676	94737.67695934548
1.49953	163265.7922811279
1.5023	159237.73024800257
1.50507	185355.38237341816
1.50784	181420.38458190358
1.51061	112956.38833310599
1.51337	72411.07213677319
1.51613	79651.37996404366
1.51888	118314.22395872949
1.52164	181375.71969183718
1.52439	196056.0417066081
1.52714	198229.9686828151
1.52989	332472.5721662312
1.53263	393302.40222116176
1.53538	419565.9982702301
1.53812	492411.24140282
1.54086	377687.62563518615
1.54359	496265.5150058323
1.54632	513161.4817081115
1.54905	529685.2965547935
1.55178	486443.15911540523
1.5545	672181.0336046002
1.55723	1015754.185583046
1.55995	1242384.0986834709
1.56266	1216121.5090471483
1.56538	1854966.2365190254
1.56809	2210108.7019536844
1.5708	2357308.5891746623
1.57351	2249939.200324322
1.57621	2636594.7587232077
1.57891	2573790.1345325573
1.58161	2841765.2213199674
1.5843	2862044.3721616194
1.587	2959937.727310523
1.58969	2781837.551051438
1.59238	2482204.6387708145
1.59506	2751047.7330832635
1.59774	2831576.720818294
1.60042	2530202.1249712617
1.6031	2187494.5753648025
1.60577	1924387.6416388603
1.60844	1644339.0081650047
1.61111	1413682.7237562125
1.61378	1134212.8421977768
1.61644	898207.7842914097
1.6191	720616.2855562955
1.62176	721725.1348851861
1.62441	715926.1328880024
1.62707	640998.4574074955
1.62971	620461.7753110738
1.63236	493307.0158563737
1.635	644697.2219507644
1.63764	803146.5131575975
1.64028	824108.9622659553
1.64292	708086.8424090089
1.64555	544395.0218797778
1.64818	429129.1577135941
1.65081	688932.4818189617
1.65343	805044.6196026924
1.65605	530688.1930468838
1.65867	692549.7960359805
1.66128	1009205.474846088
1.6639	625812.594068342
1.66651	106548.25754749305
1.66911	54832.823503449385
1.67172	269750.74864524393
1.67432	466188.11347923416
1.67692	533383.2907463771
1.67951	424831.44603632734
1.68211	270594.2356563174
1.6847	196647.38524667892
1.68728	198741.50804659416
1.68987	196128.4312709312
1.69245	115191.47005709074
1.69503	122231.02827554631
1.6976	97328.14607302954
1.70018	77127.61438997937
1.70275	62686.77191844285
1.70531	74583.54281338962
1.70788	149634.9074905104
1.71044	263268.4352457481
1.713	389940.8442563064
1.71556	446102.3342339886
1.71811	465295.59760055656
1.72066	381816.0876430771
1.72321	244055.65916443258
1.72575	354178.0106536542
1.7283	390375.31641979876
1.73084	386555.18968705053
1.73337	309270.3750979305
1.73591	290777.0430320515
1.73844	397463.9337395621
1.74097	453534.2547844214
1.74349	480867.7823850699
1.74602	523993.45931920444
1.74854	622212.2486817277
1.75105	619704.5780129753
1.75357	429438.3129383048
1.75608	197409.1831095779
1.75859	186241.02862143074
1.7611	182953.2905593733
1.7636	175746.9122517077
1.7661	179552.98221072118
1.7686	157338.30731229248
1.7711	187139.85025125794
1.77359	161746.76749724598
1.77608	103744.44249697172
1.77857	138328.92896406635
1.78105	180299.35638372632
1.78354	119608.75145881438
1.78602	72296.33369300004
1.78849	93888.82523685902
1.79097	77612.02907986549
1.79344	56319.370337731794
1.79591	78250.457027917
1.79837	123417.8548399549
1.80084	68074.00511510356
1.8033	33595.334171108945
1.80576	38251.541793396886
1.80821	41485.68422897959
1.81067	40062.852154772896
1.81312	49493.4078705885
1.81557	51099.365584105726
1.81801	35126.976174906355
1.82046	27682.360612041808
1.8229	47515.872712409386
1.82533	45457.063082100445
1.82777	18393.746882053918
1.8302	13561.387326650807
1.83263	18313.83198778435
1.83506	15164.599828740214
1.83749	10283.855981460232
1.83991	14368.51141819979
1.84233	34724.09527380663
1.84475	69403.20121345624
1.84716	45469.44653911011
1.84957	41455.9350758984
1.85198	65898.29621015908
1.85439	43641.361880324555
1.8568	19814.998784608342
1.8592	10002.476088578944
1.8616	14430.164667428766
1.864	18810.13547173646
1.86639	14585.793331163028
1.86878	6806.905333383182
1.87118	7346.774451949643
1.87356	12238.605268761583
1.87595	28196.756136449592
1.87833	78913.36878151812
1.88071	105040.48727579812
1.88309	81747.21750141961
1.88547	62911.20078398236
1.88784	75187.01051356108
1.89021	74164.2017367831
1.89258	83142.94191576555
1.89494	129023.12296780465
1.89731	108758.93446678235
1.89967	50437.887454023854
1.90203	42468.69044807573
1.90439	33488.75992375322
1.90674	36259.47623074523
1.90909	38843.84229544994
1.91144	16817.085774376857
1.91379	12779.207725839957
1.91613	27520.968598971875
1.91848	30773.932501668696
1.92082	19906.152949418174
1.92315	17572.683161775713
1.92549	18239.62116835069
1.92782	16905.82331373687
1.93015	12919.654586130484
1.93248	9882.37402190932
1.93481	10404.411055126495
1.93713	10237.400038494521
1.93945	11072.107586584641
1.94177	18615.995986801627
1.94409	20048.184927908966
1.94641	16093.900914479333
1.94872	11354.303716825918
1.95103	13549.1017753756
1.95334	19707.243331072485
1.95564	25556.130944212437
1.95795	32631.08757507669
1.96025	28851.704252098025
1.96255	23430.84278017768
1.96484	38138.69643079239
1.96714	57359.65145708878
1.96943	54408.597719603116
1.97172	44088.55956653646
1.97401	43420.05919156833
1.97629	54222.65023031798
1.97858	61129.99111164906
1.98086	47811.81938066376
1.98314	36942.379983952356
1.98541	54246.495160473496
1.98769	77764.38132632188
1.98996	68663.08310416614
1.99223	58103.718361939755
1.9945	83237.86361990744
1.99677	112718.21545966681
1.99903	123716.53690818633
2.00129	117350.41757850013
2.00355	107096.27114063919
2.00581	109450.3512981879
2.00806	122160.66831508263
2.01031	115191.6173698815
2.01256	113455.29446250932
2.01481	115841.68899325331
2.01706	98933.18691941115
2.0193	89794.85950009924
2.02154	109961.22907959888
2.02378	136578.23834338837
2.02602	129662.57354451965
2.02825	101598.77755576608
2.03049	111597.75434173802
2.03272	155093.13360786848
2.03494	179245.43005956928
2.03717	171161.49896921427
2.03939	167730.6867918293
2.04162	202218.4697615977
2.04384	240309.3081390923
2.04605	255450.82179762825
2.04827	249188.3056425594
2.05048	259975.2219646912
2.05269	286455.94083831
2.0549	295600.34608753107
2.05711	290135.5425884697
2.05931	288811.46615764045
2.06151	324624.2841327518
2.06371	358045.92778098636
2.06591	353904.1131252833
2.06811	343645.2338838649
2.0703	366398.70926672616
2.07249	403896.9122585858
2.07468	424661.3312927798
2.07686	435794.087203496
2.07905	433341.75160537247
2.08123	420757.9067949177
2.08341	424562.808347151
2.08559	433118.2760350576
2.08776	439572.205846156
2.08994	449857.0966949616
2.09211	442366.21403741173
2.09428	427721.81476556184
2.09645	429018.674272363
2.09861	431979.6227779783
2.10077	425916.0548227012
2.10293	430713.9594670358
2.10509	446789.3419529654
2.10725	451061.21889547276
2.1094	434548.4215335096
2.11155	411768.2274129616
2.1137	408255.7798229933
2.11585	414941.23985394335
2.11799	416923.3442424706
2.12013	418680.33467653405
2.12227	412387.04878070584
2.12441	407538.03370854486
2.12655	405693.26856648084
2.12868	395228.5113616825
2.13081	382057.47308067547
2.13294	370331.919807067
2.13507	350848.3618595595
2.13719	340448.60509190796
2.13931	357463.2106741258
2.14143	363685.68549387093
2.14355	339351.03159336135
2.14567	304993.2313691662
2.14778	270186.87954652007
2.14989	250753.73567679038
2.152	245641.955273216
2.1541	231218.19721129126
2.15621	213941.07683453278
2.15831	201094.06808245523
2.16041	166814.24445402442
2.16251	134094.6734483282
2.1646	136625.32066650168
2.1667	150774.03389360383
2.16879	162106.15501178848
2.17087	174371.5583915451
2.17296	175458.33512540418
2.17504	171637.89178154414
2.17713	167635.85218371183
2.1792	145290.12922221445
2.18128	113189.10214246876
2.18336	100049.5615134913
2.18543	116348.68708960057
2.1875	127041.64475481147
2.18957	107569.80035999352
2.19163	84054.14936095674
2.1937	72209.30547044253
2.19576	60419.86759246925
2.19782	40432.21698799334
2.19987	20109.325546294134
2.20193	12154.84446970789
2.20398	14774.228420529433
2.20603	19658.332188153257
2.20808	21013.626984639857
2.21012	17777.631324276696
2.21217	16473.453921753175
2.21421	23391.224070571574
2.21625	30495.458680871932
2.21828	29986.232542214417
2.22032	24889.23077825635
2.22235	23053.478052645318
2.22438	24742.545032125858
2.22641	20505.174569111718
2.22843	12082.136484832234
2.23046	7958.710430072539
2.23248	9196.006966584964
2.2345	10885.401880367459
2.23651	9408.194003787956
2.23853	7608.618678144374
2.24054	8534.042451236834
2.24255	10248.107172448505
2.24456	10379.650895096102
2.24657	8326.229206962818
2.24857	6200.351006069171
2.25057	5321.690418923606
2.25257	4329.677565957578
2.25457	2988.0506209356627
2.25656	2499.2689450574976
2.25856	4351.4690857524265
2.26055	6753.6170447395125
2.26254	7050.312310553012
2.26453	5485.957465042723
2.26651	4574.368940822446
2.2685	5322.366072135022
2.27048	7240.837380444529
2.27246	10553.834572262413
2.27443	11886.036882696928
2.27641	10737.331184549208
2.27838	10365.299544831381
2.28036	10484.417160630916
2.28233	8631.590740145384
2.28429	6542.915900711549
2.28626	5270.611544665466
2.28823	4528.821834093903
2.29019	3947.684621802995
2.29215	3556.749626790242
2.29411	3736.7484296943157
2.29607	4332.401023059986
2.29802	4706.5767205670045
2.29998	4688.837778440742
2.30193	5813.998464650995
2.30388	8463.44701503862
2.30583	13132.381947460584
2.30778	21732.919099359708
2.30972	34819.92651372752
2.31167	43972.108313228164
2.31361	38721.770025150676
2.31555	23181.007274065294
2.31749	8573.281612643208
2.31943	2997.195998704727
2.32137	2534.413538918386
2.32331	3197.0551776677653
2.32524	3089.613899119681
2.32718	2451.877129142282
2.32911	2035.676957109125
2.33104	2076.571636265493
2.33297	2923.658145601607
2.3349	4359.836888544217
2.33683	5403.389348250824
2.33876	5346.3282938588445
2.34068	4798.2884889540355
2.34261	4338.978025122315
2.34453	4095.6631136209617
2.34646	4739.554063074251
2.34838	6681.22750854382
2.3503	7948.466971339188
2.35223	8456.876687322192
2.35415	8128.466752460625
2.35607	8771.111704989806
2.35799	13568.427024911696
2.35991	19137.810981126568
2.36183	21270.80766329231
2.36375	20554.509902693502
2.36566	19653.886525497343
2.36758	15384.910367699329
2.3695	9573.886749347297
2.37142	5694.957559327198
2.37334	5470.671740913177
2.37526	7003.081522266589
2.37718	8400.823504604285
2.3791	9810.984222487297
2.38101	11180.185283431698
2.38293	11917.604149391853
2.38485	11238.627801604045
2.38677	11836.431868386715
2.3887	14987.70606595118
2.39062	18924.114181144534
2.39254	21296.688295060325
2.39446	21867.585920290694
2.39639	21856.0502398271
2.39831	22738.551415344773
2.40024	28826.0525873905
2.40216	34711.42808649786
2.40409	35916.0428358976
2.40602	29395.97720682298
2.40795	24524.40252750814
2.40989	29849.91722886501
2.41182	42364.58568154958
2.41376	48057.885248125436
2.4157	44537.06316178129
2.41764	40142.220126233195
2.41958	40374.773603088535
2.42152	41615.74467075656
2.42347	39705.06568611763
2.42542	35921.45242622838
