#wavelength	surface flux
0.676892	507999.7191411035
0.678297	540974.8019071282
0.679702	572316.1579495249
0.681109	601668.1873534555
0.682517	627769.49250916
0.683926	653659.8375324873
0.685337	676282.1101112458
0.686749	695846.5226468589
0.688164	712979.239917519
0.689581	725059.7668193583
0.691	717556.2670386201
0.692422	728488.0234534949
0.693847	716830.0368108785
0.695274	743648.0588400572
0.696705	747081.6156678125
0.698139	747420.5644463962
0.699576	741342.8781892533
0.701017	730482.331039754
0.702461	719332.5361139291
0.70391	706986.4406859737
0.705362	685153.5734262487
0.706819	665512.590796478
0.70828	646177.0233859584
0.709745	618515.1788192877
0.711216	594584.8298360697
0.71269	568610.5778522507
0.71417	541739.2908171525
0.715655	503185.566595213
0.717145	466662.98755053896
0.71864	432742.38234173274
0.72014	412268.59881566616
0.721647	388593.71737541974
0.723158	372205.36578277283
0.724676	341604.065699568
0.726199	311273.3815605301
0.727728	273020.11161317455
0.729264	263177.84322825575
0.730805	236742.7841253922
0.732353	222415.3611770494
0.733907	200426.6271377383
0.735468	172908.9274770314
0.737035	161212.06566631177
0.738609	143410.60754514803
0.74019	126780.46627092705
0.741777	110831.30212562953
0.743372	96424.46853798673
0.744973	82591.3134820182
0.746582	69708.25307465506
0.748197	57923.055452243665
0.74982	47954.04035633205
0.751451	38757.082671231095
0.753088	30788.194235632967
0.754734	23994.687803447156
0.756386	18306.40021867247
0.758047	13664.279900126303
0.759715	9960.403818025867
0.76139	7024.093357513371
0.763074	4621.101451944374
0.764765	2318.2284406288672
0.766464	651.3509367233445
0.768172	1466.0770840183427
0.769887	1003.346283936079
0.77161	3551.0532466835675
0.773341	7060.557415866298
0.775081	11074.024729249422
0.776829	16239.062737248007
0.778585	20392.974505582253
0.780349	21744.216151620236
0.782121	41711.10119881183
0.783902	56951.22103891078
0.785691	74159.18388642983
0.787489	94935.57909437596
0.789295	118980.7202744688
0.79111	145463.3333750972
0.792933	157143.82020986004
0.794764	105374.06618997497
0.796604	226998.99372975426
0.798453	298570.9889597929
0.80031	356004.23000769515
0.802176	416286.00251393195
0.804051	484767.44008368417
0.805934	556171.4969107484
0.807826	635335.3933298499
0.809727	718750.845654925
0.811636	804919.367578032
0.813554	888836.0303279482
0.81548	1009310.1924117353
0.817416	1124529.6301637816
0.81936	1125825.7216920268
0.821313	1413105.106073446
0.823274	1586924.033996509
0.825244	1726528.9843299957
0.827223	1946594.1923466006
0.829211	2088189.2133564262
0.831208	2251691.263551769
0.833213	2571951.4889546772
0.835227	2767663.2492545852
0.837249	2863609.811370276
0.83928	3245529.9295335487
0.841321	3586350.394006939
0.843369	3868296.4663831866
0.845427	4127140.198717184
0.847493	4566383.564297372
0.849567	4547836.718536077
0.851651	3114253.5117591918
0.853742	4938997.0552446805
0.855843	6049870.053550968
0.857952	6552074.504093536
0.86007	6853159.40125524
0.862196	5036883.410274906
0.864331	5457145.155738416
0.866474	6231336.922025193
0.868626	6482496.894303377
0.870786	6342963.240783855
0.872955	6720208.185888331
0.875132	6251168.528045334
0.877317	8881922.914786851
0.879511	9343526.688912464
0.881713	8504702.90280159
0.883923	9213207.51278305
0.886142	10420217.121823503
0.888369	9756828.170696598
0.890604	11384645.642853433
0.892847	9002485.241050793
0.895099	7824730.465631852
0.897358	12359176.82018918
0.899626	14439965.271713259
0.901901	16224004.21987541
0.904185	19370243.652509116
0.906476	18320588.399342827
0.908776	15745404.991880838
0.911083	18257924.1526967
0.913398	19478253.70070905
0.915721	22797075.22500555
0.918051	23485340.94099043
0.92039	26636406.934126377
0.922736	25593862.25596155
0.925089	23550546.25059424
0.927451	18730466.086551405
0.929819	13253634.251005787
0.932195	10557398.848730197
0.934579	10813702.20137999
0.93697	22643446.624675762
0.939369	25529415.180292763
0.941774	23255747.2470517
0.944187	20283408.588212624
0.946607	26672369.88476135
0.949035	28803656.262800213
0.951469	19375893.63648642
0.953911	23193196.196410112
0.956359	19226816.56461401
0.958814	26840042.378991067
0.961277	19398018.953654613
0.963746	18752894.984787226
0.966222	27052915.049604587
0.968705	29549731.004690804
0.971194	33448768.352222655
0.97369	30575067.2652256
0.976193	39053265.41319982
0.978702	36643180.19879996
0.981217	39193000.87092105
0.983739	32471652.775386285
0.986268	41033979.739053056
0.988802	43615281.62933004
0.991343	35436921.33487295
0.99389	42293808.16260393
0.996444	43783451.06249092
0.999003	25674291.537570477
1.00157	26220052.812096607
1.00414	30240338.279247675
1.00672	31845797.153288715
1.0093	31802621.66432176
1.01189	34159616.81780021
1.01448	42793869.91206062
1.01708	43773392.9100245
1.01969	53276912.45852688
1.0223	53846830.27021997
1.02492	54130152.17778685
1.02754	53716505.94103316
1.03017	65890426.23791323
1.0328	65385911.46287773
1.03544	66764990.87308647
1.03808	81545082.57427554
1.04073	79096465.71979529
1.04339	79916866.52242713
1.04604	74847947.59176095
1.04871	75772386.89999941
1.05138	78081551.91876665
1.05405	85392366.14868647
1.05673	80496284.0746574
1.05941	92648684.4605675
1.0621	88141574.23957957
1.06479	95325698.6310723
1.06749	98872246.42515273
1.07019	109706626.08613437
1.07289	105583813.390674
1.0756	109060341.29167461
1.07832	109716279.34150495
1.08104	110953735.22214343
1.08376	113506506.24277772
1.08649	102022256.01421084
1.08922	87043081.06753078
1.09195	74496400.6289506
1.09469	68539240.78187127
1.09743	52913627.8996563
1.10018	48647444.24104712
1.10293	39082703.49928752
1.10568	28794553.5779309
1.10844	35773745.79570065
1.1112	27981476.520980988
1.11396	23611559.33247009
1.11673	16978536.33596104
1.1195	25332971.181574002
1.12228	19954362.22175469
1.12505	24693664.09608291
1.12783	33769067.992167465
1.13062	30556620.94716492
1.13341	11521043.690811137
1.1362	15203788.530539844
1.13899	19762411.733837306
1.14178	31591612.84579662
1.14458	25195170.290129066
1.14738	26272640.310528707
1.15019	41395367.903897785
1.153	30538393.240533657
1.1558	22609970.059035417
1.15862	35987585.67550007
1.16143	21641742.283048604
1.16425	14423047.351477038
1.16707	20101962.51998834
1.16989	21173249.71366893
1.17271	32425399.584471624
1.17554	26908316.762505982
1.17837	17890391.633205526
1.1812	41008341.636570185
1.18403	45721976.232969746
1.18686	41986870.9578053
1.1897	47383158.85396232
1.19253	54221819.94659206
1.19537	62821527.55640673
1.19822	57710184.640222155
1.20106	62607474.33992628
1.2039	68819068.37522742
1.20675	78706430.97920977
1.2096	90735900.28698674
1.21245	94951486.8332237
1.2153	97754724.21717903
1.21815	98865384.4018573
1.221	104458009.58271381
1.22385	113349962.00766817
1.22671	117272115.82831751
1.22957	125671916.24688569
1.23242	129820829.01692851
1.23528	121835261.7195051
1.23814	127241574.11787249
1.241	122474093.90979977
1.24387	99687870.9258554
1.24673	136167899.51011106
1.24959	117063269.89688648
1.25245	73495938.65104912
1.25532	132515386.42957425
1.25818	150791031.7604
1.26105	162759721.58159563
1.26392	132865344.45926392
1.26678	151093536.5522083
1.26965	132570032.84846392
1.27252	157121113.824462
1.27538	162782012.9491267
1.27825	152395192.8056582
1.28112	156175386.47558427
1.28399	122633521.57503444
1.28686	129679503.08128455
1.28973	123850425.4531727
1.2926	130119908.66005081
1.29546	110163318.43977225
1.29833	97961897.49517773
1.3012	125432001.77724722
1.30407	130128764.2514834
1.30694	102553322.35948047
1.30981	108613396.9246771
1.31267	114526817.82258001
1.31554	90477383.93945229
1.31841	83203977.76239206
1.32128	96170168.66932575
1.32414	65765244.22290892
1.32701	38795911.70711659
1.32987	28917924.480209637
1.33274	19727770.969121963
1.3356	14387329.445835153
1.33847	3955641.023474764
1.34133	3379434.630694618
1.34419	4191649.8327227114
1.34705	3369993.531599617
1.34991	4695216.685174688
1.35277	5308221.231242101
1.35563	2093383.9104570718
1.35849	2196598.316833843
1.36135	3009587.14326401
1.3642	4614501.173072205
1.36706	4016357.975882684
1.36991	3438999.782721481
1.37277	4036876.686365951
1.37562	2584430.4642359344
1.37847	1942863.2240768522
1.38132	3952070.9289877475
1.38417	1837322.1986994504
1.38701	484815.73482102976
1.38986	2593980.946173876
1.39271	3536520.550231145
1.39555	2197236.4235997126
1.39839	3664071.091077841
1.40123	5337504.573078671
1.40407	4831671.311595705
1.40691	3287148.0264817546
1.40974	2348079.257457415
1.41258	4097174.1526434827
1.41541	4210592.988334883
1.41824	1865324.753788681
1.42107	1054233.1012895063
1.4239	1199711.9559296607
1.42673	4437944.3104058765
1.42955	5904585.051141596
1.43237	3559690.4660922065
1.43519	6015062.920459939
1.43801	6889306.703524255
1.44083	5393952.643372492
1.44365	6112021.816231986
1.44646	5360890.674778094
1.44927	7101662.6713317195
1.45208	10895104.551089857
1.45489	8865900.008964919
1.45769	13596586.770887446
1.4605	11927111.11305717
1.4633	6976897.634095037
1.4661	10980605.130697815
1.4689	10582651.104932668
1.47169	9791525.644040324
1.47449	10309409.362355243
1.47728	10905500.601601688
1.48007	10942669.177258398
1.48286	12130447.752494551
1.48564	11435146.01765655
1.48842	12590795.120472958
1.4912	15408526.397256663
1.49398	11366138.110441953
1.49676	15398585.740030553
1.49953	16756726.629010655
1.5023	23790151.568087436
1.50507	27691367.367803685
1.50784	22176213.378627855
1.51061	25032588.561027862
1.51337	27664380.954235073
1.51613	20720868.369530633
1.51888	17453146.632791746
1.52164	22077112.931785446
1.52439	29017873.221295763
1.52714	22805047.53765394
1.52989	24678835.695137437
1.53263	31028018.579387564
1.53538	36949575.5324382
1.53812	31546442.015479524
1.54086	27470383.712276936
1.54359	23798403.893368557
1.54632	33393063.619667947
1.54905	36292199.969097674
1.55178	35845926.199398674
1.5545	34639237.85376507
1.55723	38415939.965206854
1.55995	43246852.19794711
1.56266	40883843.51232748
1.56538	48056117.45519617
1.56809	57278842.39852128
1.5708	52811721.23303283
1.57351	55058519.18062919
1.57621	53692265.272635296
1.57891	51833823.41021491
1.58161	59073843.5879354
1.5843	58199329.927356936
1.587	59379676.79794699
1.58969	56311937.22137814
1.59238	50555935.57023343
1.59506	58504230.51713075
1.59774	62230230.70685194
1.60042	55671017.582607076
1.6031	51581804.023830645
1.60577	48066649.22550668
1.60844	42838631.81522557
1.61111	47880549.89111899
1.61378	46711085.18515171
1.61644	44151315.90690906
1.6191	40352085.07852605
1.62176	44755041.67596532
1.62441	45597108.831410274
1.62707	48563824.316651426
1.62971	46707661.3893053
1.63236	48938279.80114065
1.635	57836989.534941375
1.63764	61931493.42353984
1.64028	45491105.692472465
1.64292	45223144.66010835
1.64555	39638201.82914597
1.64818	40006257.031301506
1.65081	51531532.0928212
1.65343	51573870.83013803
1.65605	40997995.569477975
1.65867	39690622.65247798
1.66128	53414873.72965235
1.6639	43464622.18070166
1.66651	13636172.523364294
1.66911	5821485.395495068
1.67172	17975897.522077866
1.67432	30298555.85827606
1.67692	38867846.911872804
1.67951	35147643.111888744
1.68211	30197102.00010308
1.6847	21355546.757047366
1.68728	21232240.031994734
1.68987	20997850.06132975
1.69245	17806478.24320512
1.69503	16113866.28518877
1.6976	16582636.030917907
1.70018	18010031.854055904
1.70275	13096134.994639425
1.70531	12031656.465870278
1.70788	17471045.72568626
1.71044	23204741.523553956
1.713	28372873.94714198
1.71556	30082865.64209204
1.71811	30415902.879765294
1.72066	23538213.305881657
1.72321	14056175.118964357
1.72575	18877916.265092492
1.7283	25266757.727069758
1.73084	25530537.78531531
1.73337	17472919.393172413
1.73591	15260111.895029379
1.73844	17922658.271440342
1.74097	16168533.636834767
1.74349	15527903.612326644
1.74602	18983392.422655318
1.74854	24152081.67832807
1.75105	24055742.477124207
1.75357	17663328.452508144
1.75608	11634907.76411249
1.75859	10436114.816848107
1.7611	10127114.503465889
1.7636	12238733.570863418
1.7661	11945513.285832506
1.7686	10486139.498003345
1.7711	12494093.37305963
1.77359	9768669.533346564
1.77608	6631976.022609729
1.77857	10052683.692202056
1.78105	12509348.559571873
1.78354	9067257.386847828
1.78602	7757119.214271985
1.78849	9300680.68900223
1.79097	8170860.150294937
1.79344	7438393.005230878
1.79591	8864688.670738956
1.79837	12145102.563576918
1.80084	8536119.151022507
1.8033	7573279.254500198
1.80576	7692378.395582015
1.80821	7886573.437436696
1.81067	7896669.384036177
1.81312	8998523.16114502
1.81557	9643810.045309708
1.81801	5973111.566721038
1.82046	5259028.282509565
1.8229	7175790.156030735
1.82533	6251215.40016545
1.82777	5730905.641625035
1.8302	6544686.364863748
1.83263	6105198.739261764
1.83506	5408468.122239933
1.83749	5746947.55881364
1.83991	6504148.594906838
1.84233	7577441.850423177
1.84475	8793014.513956629
1.84716	7179077.340027349
1.84957	6928483.203860606
1.85198	7360223.3890145095
1.85439	6141816.433036878
1.8568	4315014.054954283
1.8592	2958439.868102092
1.8616	3607332.0814966713
1.864	4045372.367905326
1.86639	3376320.487079304
1.86878	3173673.070783106
1.87118	5066612.0310304575
1.87356	5533115.668690124
1.87595	5412009.858337361
1.87833	8556018.932863096
1.88071	11091960.041365147
1.88309	9298104.98444829
1.88547	8418556.8771976
1.88784	10119441.614966653
1.89021	11041580.173899064
1.89258	12508339.262375299
1.89494	14669062.29124275
1.89731	12870853.00944477
1.89967	9214516.035223352
1.90203	8967135.96475797
1.90439	9395938.014611412
1.90674	11949548.664937079
1.90909	12729273.964202939
1.91144	7883046.908394842
1.91379	7403564.300591486
1.91613	11423175.950644841
1.91848	12611604.796476657
1.92082	9698323.399108501
1.92315	8190013.355814228
1.92549	9050709.77524426
1.92782	9297741.413492538
1.93015	7263058.827764694
1.93248	5461873.97901001
1.93481	4603755.583270276
1.93713	3446832.7531574825
1.93945	3344589.9910762478
1.94177	6195375.636594757
1.94409	8174516.836925614
1.94641	8159248.133354989
1.94872	8769324.804654054
1.95103	11021987.63667881
1.95334	10473657.762628462
1.95564	7455603.057702503
1.95795	6499553.935582463
1.96025	5334207.527407793
1.96255	4969966.514820682
1.96484	7477919.087520729
1.96714	9172941.484198654
1.96943	8478994.389178293
1.97172	9338538.299477866
1.97401	9788507.42435144
1.97629	9427982.084576398
1.97858	10094198.27747415
1.98086	8945534.059755655
1.98314	6854123.681348389
1.98541	7931850.39693314
1.98769	11194794.916406827
1.98996	11222253.547560181
1.99223	10047783.593657607
1.9945	11362018.731502647
1.99677	11889182.321152104
1.99903	10980143.956773307
2.00129	10606379.058107343
2.00355	11387798.49418541
2.00581	12798734.463422662
2.00806	12945313.082006494
2.01031	13750156.873553691
2.01256	17717569.32872798
2.01481	19304798.255615376
2.01706	16218125.911474526
2.0193	15668581.394782307
2.02154	18354842.225894548
2.02378	18614681.71494721
2.02602	15855841.741993211
2.02825	14977859.834408492
2.03049	16674336.226998962
2.03272	19709701.411777895
2.03494	20526459.732803565
2.03717	19379127.167380206
2.03939	19234196.351460673
2.04162	21557226.286411393
2.04384	24371455.85564685
2.04605	24566659.511526447
2.04827	22751797.82205927
2.05048	22877379.466116525
2.05269	22563500.43420492
2.0549	20097729.234238252
2.05711	21729773.224974513
2.05931	23677271.72644022
2.06151	23221357.95307109
2.06371	22793963.618140455
2.06591	22079189.584846493
2.06811	23226759.74658599
2.0703	25533406.010524843
2.07249	27025699.90419696
2.07468	26945309.724067014
2.07686	25712339.83161706
2.07905	25837070.562752135
2.08123	27229236.512842696
2.08341	27763751.48404575
2.08559	26916766.02340143
2.08776	27108322.510780558
2.08994	28155536.83470019
2.09211	28273409.011401124
2.09428	29033621.34064005
2.09645	30090115.353826415
2.09861	29048100.92828637
2.10077	26989213.98309692
2.10293	26333678.172347277
2.10509	27121836.684895802
2.10725	27250663.286813248
2.1094	24844030.682425026
2.11155	21345811.49712636
2.1137	20721677.48655224
2.11585	21596178.957056496
2.11799	22696708.6383412
2.12013	24609729.189548645
2.12227	25386384.225379094
2.12441	25587866.12348594
2.12655	25371149.51042347
2.12868	24131975.985804003
2.13081	23664440.80525666
2.13294	23547173.257613562
2.13507	21566257.96783332
2.13719	19972006.6814456
2.13931	21070808.046332583
2.14143	22192558.961122982
2.14355	21404314.67856585
2.14567	19904553.69859012
2.14778	17481134.09057838
2.14989	15681586.739744741
2.152	15944578.378260335
2.1541	16212492.894278778
2.15621	15950564.308465995
2.15831	15214006.762186397
2.16041	13638903.045868993
2.16251	13220004.305377917
2.1646	13604833.45149844
2.1667	13536836.886065928
2.16879	14203770.226091098
2.17087	15339215.569167951
2.17296	15175277.327865694
2.17504	14649851.784994146
2.17713	14700819.527304145
2.1792	13975291.53405938
2.18128	11766137.26083618
2.18336	9099137.777352132
2.18543	7986343.317231724
2.1875	7935564.567861778
2.18957	7573969.95565897
2.19163	7586898.576148924
2.1937	8177112.465406325
2.19576	7451196.430336433
2.19782	5146984.390523972
2.19987	3003889.9242056245
2.20193	2132673.6873306367
2.20398	2055861.4713619256
2.20603	1994738.4153660373
2.20808	2025803.3506884295
2.21012	2185644.308770039
2.21217	2411517.641348614
2.21421	2948059.556304671
2.21625	3474397.3052767143
2.21828	3610821.072897732
2.22032	3783369.398353387
2.22235	3978961.8962885384
2.22438	3869319.784665425
2.22641	3421814.717093182
2.22843	3309224.4667240195
2.23046	3146894.2145307916
2.23248	2460313.7268649875
2.2345	1853855.2968139988
2.23651	1604599.490861666
2.23853	1618266.1344255395
2.24054	1915790.790840877
2.24255	2371465.939541792
2.24456	2784345.702423716
2.24657	2991992.985946635
2.24857	2944599.7259191293
2.25057	2656033.842420782
2.25257	2260047.83029724
2.25457	1889543.983274722
2.25656	1660305.4961670556
2.25856	1553026.0037870111
2.26055	1492289.5001952045
2.26254	1286034.4222118722
2.26453	1133932.7785446506
2.26651	1194196.7015024498
2.2685	1299820.351582899
2.27048	1343707.1233543789
2.27246	1404156.8328575501
2.27443	1393681.0302075932
2.27641	1425413.5223157667
2.27838	1559364.3423218182
2.28036	1559249.2748230514
2.28233	1411380.695848026
2.28429	1252150.2802079478
2.28626	1120896.748833917
2.28823	1011498.2569537114
2.29019	901110.5290551741
2.29215	794841.3074412403
2.29411	773848.5014144016
2.29607	852798.9449411206
2.29802	1040389.0545438747
2.29998	1317952.0664263126
2.30193	1672345.0652684786
2.30388	1975326.127728861
2.30583	2137615.702147079
2.30778	2329052.440133136
2.30972	2614377.256726623
2.31167	2848698.678839277
2.31361	2556907.6416388745
2.31555	1837986.5610063714
2.31749	1142076.8138035454
2.31943	912496.8070408817
2.32137	823156.9985064757
2.32331	698984.3547780622
2.32524	584567.7581328165
2.32718	497937.7733067017
2.32911	460565.0711706633
2.33104	491146.18514880544
2.33297	578750.3617720322
2.3349	742207.3399426062
2.33683	996965.0340632185
2.33876	1177966.784735426
2.34068	1248288.5361129919
2.34261	1280997.657913814
2.34453	1366617.3215244813
2.34646	1502863.0076446994
2.34838	1607403.8138580243
2.3503	1560750.155293734
2.35223	1501470.1112044244
2.35415	1407678.0544214468
2.35607	1238799.0708498722
2.35799	1256851.7677464406
2.35991	1510685.4262919596
2.36183	1814337.2402092055
2.36375	2021865.1802642017
2.36566	2139034.481171338
2.36758	2056788.5860882602
2.3695	1877209.5563647375
2.37142	1746642.6593501086
2.37334	1628954.2488838364
2.37526	1361317.1049685567
2.37718	1065968.898760608
2.3791	915084.2570484685
2.38101	867929.4801972967
2.38293	887361.5430862062
2.38485	1046019.2637640843
2.38677	1397385.336734672
2.3887	1678089.1310851888
2.39062	1651284.2906337178
2.39254	1574923.3652074893
2.39446	1739294.598588178
2.39639	1955002.3215116318
2.39831	1989608.9542840754
2.40024	2024519.2201797224
2.40216	2200593.0375965843
2.40409	2542611.0325070173
2.40602	2631903.3886000197
2.40795	2475942.4968709024
2.40989	2497683.0138495686
2.41182	2761009.191038029
2.41376	2900680.363300594
2.4157	3089410.499480518
2.41764	3179923.538901156
2.41958	3070158.9740716387
2.42152	2810479.35495284
2.42347	2718280.452805523
2.42542	2813028.1294253333
