#wavelength	surface flux
0.676892	94156.84703448336
0.678297	100231.24046903572
0.679702	106092.48448139805
0.681109	111767.77500846838
0.682517	116918.99432198488
0.683926	122061.40650261722
0.685337	126830.8989500496
0.686749	130842.29257885367
0.688164	134237.39140571293
0.689581	136657.10734950745
0.691	136742.64525743912
0.692422	136047.63633207287
0.693847	137287.86758824167
0.695274	139272.95763764056
0.696705	139700.19541342414
0.698139	140809.67180221595
0.699576	139248.40475634413
0.701017	137075.54835403513
0.702461	133899.07254718101
0.70391	132149.92378104114
0.705362	127903.88884782331
0.706819	123836.86659045299
0.70828	120211.39147290772
0.709745	114318.14282318481
0.711216	108494.85006320207
0.71269	103568.35868705896
0.71417	98083.92636629147
0.715655	87180.95393175102
0.717145	78290.67504613257
0.71864	69782.74338494244
0.72014	65993.82451657056
0.721647	62648.233245443655
0.723158	62109.96524602559
0.724676	55368.721885348314
0.726199	49319.81318810497
0.727728	41525.66408626891
0.729264	41443.16261343064
0.730805	36460.20074282917
0.732353	35446.429018706134
0.733907	31769.357460748997
0.735468	25979.244465828124
0.737035	25542.205867506313
0.738609	22762.61240736345
0.74019	20186.77901567279
0.741777	17710.079200121967
0.743372	15670.807298719052
0.744973	13570.991588810326
0.746582	11605.420731829192
0.748197	9791.107158841303
0.74982	8456.119407318844
0.751451	7136.20717348395
0.753088	6004.939918286573
0.754734	5035.200447162667
0.756386	4191.680065937735
0.758047	3466.1501477628603
0.759715	2818.7631150614343
0.76139	2183.4226808440812
0.763074	1488.4141629914495
0.764765	732.9259015224192
0.766464	207.16917338345905
0.768172	468.89806213727906
0.769887	320.69234123697805
0.77161	1147.3837621444873
0.773341	2292.136406736505
0.775081	3363.6149862222387
0.776829	4469.4576908490435
0.778585	5253.930782932229
0.780349	5389.466225388477
0.782121	8948.216825202806
0.783902	11412.563320279465
0.785691	14192.506307032154
0.787489	17770.47476322398
0.789295	21967.892808258348
0.79111	26636.428961739184
0.792933	28777.124803063467
0.794764	20148.05879128379
0.796604	41383.6072036949
0.798453	54568.34552601837
0.80031	65935.96495606157
0.802176	77758.38524183127
0.804051	92353.58437360765
0.805934	106336.2844709056
0.807826	122872.51538980978
0.809727	139722.85884310823
0.811636	155751.7166194192
0.813554	169623.6784736403
0.81548	195871.93720012016
0.817416	229814.10699265543
0.81936	246589.6369364153
0.821313	295883.56129980175
0.823274	331711.7495800651
0.825244	355524.16973191965
0.827223	420028.0305285912
0.829211	444809.1573037344
0.831208	480699.4675931453
0.833213	569412.0175069433
0.835227	614664.2617132684
0.837249	604472.8634454546
0.83928	721805.6651959404
0.841321	819515.4957917507
0.843369	883892.3006001691
0.845427	948205.4804002254
0.847493	1090820.560013861
0.849567	1060405.493835679
0.851651	779043.2735444076
0.853742	1233755.5360437958
0.855843	1477978.2738202428
0.857952	1607143.9319674422
0.86007	1737661.1962529845
0.862196	1597839.7664623042
0.864331	1724966.4513515518
0.866474	1934226.34803768
0.868626	2077727.5886319762
0.870786	2119213.572021506
0.872955	2294620.0849485747
0.875132	2274262.840251181
0.877317	2712951.737753282
0.879511	2832787.0482362923
0.881713	2339928.313892608
0.883923	2150199.017822883
0.886142	2412889.069522196
0.888369	2149341.128921254
0.890604	2436304.079128459
0.892847	1968094.945522855
0.895099	1650910.9114843337
0.897358	2872722.5210712715
0.899626	3392558.335600213
0.901901	3933348.332695669
0.904185	5053553.040695735
0.906476	5415075.597639033
0.908776	4527727.697226001
0.911083	5390066.912406341
0.913398	5129202.700699964
0.915721	6150739.159597563
0.918051	6102612.986776185
0.92039	6733171.279379887
0.922736	6369256.280107014
0.925089	5341689.5302762035
0.927451	3636970.5350721236
0.929819	2108411.389698387
0.932195	1463072.7356847422
0.934579	1337818.7921254225
0.93697	4650502.051693916
0.939369	5703482.538115973
0.941774	4571977.473440166
0.944187	3983436.7192336223
0.946607	5546908.410506854
0.949035	6501243.581502293
0.951469	3175790.0596821634
0.953911	4309503.906823662
0.956359	3889372.9377848683
0.958814	5471182.459371407
0.961277	3245593.00142121
0.963746	3870264.588488768
0.966222	5482227.930281602
0.968705	6271210.981560662
0.971194	6954939.4647365995
0.97369	6155517.914409057
0.976193	8364174.534112983
0.978702	7665870.491431857
0.981217	7483589.767860699
0.983739	5453410.966363466
0.986268	7975208.821692788
0.988802	8894051.741697315
0.991343	7788644.078681519
0.99389	10443787.920019925
0.996444	11579098.24245404
0.999003	6796001.790891557
1.00157	8902042.374307768
1.00414	10635279.534985896
1.00672	12461425.640939891
1.0093	11987528.24778442
1.01189	13485320.208139114
1.01448	15763442.247322747
1.01708	16975936.109254096
1.01969	19513725.964347094
1.0223	19737381.25429586
1.02492	20031381.244896144
1.02754	21704321.87001574
1.03017	25305129.11689044
1.0328	23958800.012678314
1.03544	26400902.459779337
1.03808	32153284.916012738
1.04073	29772753.71031514
1.04339	31398561.283710804
1.04604	30394870.13311132
1.04871	32142607.163910706
1.05138	33483676.332269624
1.05405	37535041.45545149
1.05673	35295152.997261494
1.05941	40574025.97295089
1.0621	38395684.17520509
1.06479	40691916.71152753
1.06749	41773942.61603309
1.07019	46384994.29671053
1.07289	44486828.07446322
1.0756	44450505.08165503
1.07832	42167552.19437703
1.08104	44036607.909832634
1.08376	41513475.23100403
1.08649	37330806.98524816
1.08922	26608926.10867314
1.09195	19688834.41811869
1.09469	15958818.842768792
1.09743	12734435.189324128
1.10018	10958674.623097247
1.10293	7959470.596126242
1.10568	5818891.576606263
1.10844	6847633.714899017
1.1112	4556403.352633159
1.11396	3756171.141727574
1.11673	2357975.431911547
1.1195	3474255.0085516046
1.12228	2270840.810999322
1.12505	3350767.776651465
1.12783	4704361.811082347
1.13062	5192825.980211043
1.13341	1279840.1795528498
1.1362	1796841.7517460077
1.13899	3361952.9306321824
1.14178	5512654.768556691
1.14458	3832016.4055995494
1.14738	3539756.5740926415
1.15019	6158803.998078711
1.153	4130300.4435073663
1.1558	2579961.8762490153
1.15862	4745330.105602442
1.16143	2154208.8908178555
1.16425	1252233.1060397292
1.16707	3182535.974486379
1.16989	3628122.984547404
1.17271	5460632.154646624
1.17554	5839440.484389052
1.17837	3618295.1162637635
1.1812	9665112.556443928
1.18403	12086329.344337715
1.18686	9446323.717474716
1.1897	11668080.375305818
1.19253	13618659.59422881
1.19537	17098401.175975986
1.19822	13897426.56353822
1.20106	15095367.52122695
1.2039	19102340.991880182
1.20675	23965479.472263083
1.2096	27933126.454641026
1.21245	27946675.471751694
1.2153	29127177.012986075
1.21815	28063243.96172646
1.221	30461190.5194235
1.22385	34749092.71538118
1.22671	35905890.522291705
1.22957	42688313.90743042
1.23242	42982904.02205149
1.23528	40166597.86707361
1.23814	44171176.44248895
1.241	48191034.42539173
1.24387	41479340.13674534
1.24673	52536961.02303505
1.24959	47115678.33412756
1.25245	33404514.281295992
1.25532	56208507.21189106
1.25818	59593071.12682865
1.26105	62421525.159341626
1.26392	43458689.46686078
1.26678	52211505.1532256
1.26965	41423491.20692364
1.27252	54364701.068683915
1.27538	58101324.04445458
1.27825	50596209.83280268
1.28112	52687682.70012793
1.28399	39193791.41873453
1.28686	38599124.513338745
1.28973	36279214.62502777
1.2926	36712036.95636044
1.29546	30197652.31054754
1.29833	26330625.62162097
1.3012	36464193.42978417
1.30407	37187821.26038915
1.30694	27969792.309903923
1.30981	27712372.927002918
1.31267	31464173.02544132
1.31554	22502637.559337273
1.31841	20213962.310227595
1.32128	24723338.39862725
1.32414	15098413.744911395
1.32701	8030410.562187986
1.32987	4651393.830848369
1.33274	4284214.851139858
1.3356	3115521.6825461676
1.33847	609365.1047450058
1.34133	497739.0157608424
1.34419	606421.7040913933
1.34705	417810.5152710864
1.34991	732111.0993408078
1.35277	665313.3087303491
1.35563	241309.91419148826
1.35849	201167.70614659958
1.36135	295327.92635509593
1.3642	590356.0983576345
1.36706	389214.6511745369
1.36991	294192.6421788577
1.37277	395018.6587226089
1.37562	227783.04105918063
1.37847	193503.03413870168
1.38132	572292.698209677
1.38417	185571.106925229
1.38701	35978.977323303225
1.38986	276324.07233627327
1.39271	519255.0118988803
1.39555	210805.68995983546
1.39839	294978.28075493046
1.40123	491128.16089804564
1.40407	393086.1375914044
1.40691	285955.4955201221
1.40974	204099.63432571848
1.41258	493803.6511568838
1.41541	608876.4810668387
1.41824	256194.57301920746
1.42107	78686.33061066945
1.4239	107728.80938018124
1.42673	628892.8524124462
1.42955	995619.0421802804
1.43237	548832.8728703571
1.43519	1083633.0612647966
1.43801	1150233.2012632887
1.44083	793252.4106018164
1.44365	856129.0503949397
1.44646	737921.1092258671
1.44927	1207048.1074591696
1.45208	2471870.689624664
1.45489	1980205.1567184217
1.45769	3017574.8632703377
1.4605	2341717.7070727674
1.4633	1474797.245749938
1.4661	2507789.886351281
1.4689	2214224.104012923
1.47169	1803871.5800530517
1.47449	1914429.7134164888
1.47728	2212997.965622961
1.48007	2066708.2552159226
1.48286	2084689.0785190158
1.48564	2169555.7195844064
1.48842	2753524.168545794
1.4912	3469786.5599798886
1.49398	1873951.9534540093
1.49676	2733535.7301341537
1.49953	3440859.4677181006
1.5023	5694304.148421533
1.50507	6502627.349956906
1.50784	5238147.295036882
1.51061	5973160.67466867
1.51337	6530981.119948671
1.51613	4213626.968349354
1.51888	3363495.697795677
1.52164	5188124.691113182
1.52439	6824512.348362047
1.52714	5025244.053262745
1.52989	5638099.67555672
1.53263	7712031.261772012
1.53538	9569534.543316582
1.53812	7485702.641812363
1.54086	5469084.342889366
1.54359	5620706.665511751
1.54632	8838830.318961464
1.54905	9372130.283234827
1.55178	8661867.655548953
1.5545	8172380.121296535
1.55723	11024256.976975864
1.55995	12271433.731765753
1.56266	10069543.897971177
1.56538	15397899.358660853
1.56809	19158401.55813714
1.5708	16222923.918296967
1.57351	16256508.726516096
1.57621	15631214.113737836
1.57891	14998873.297117813
1.58161	18927352.39168374
1.5843	17212775.46889929
1.587	16847864.419853512
1.58969	16283813.700317765
1.59238	13787068.252739301
1.59506	17161243.805703636
1.59774	18574496.729176804
1.60042	14727960.242312623
1.6031	12036661.540187337
1.60577	11156123.125324639
1.60844	8850050.441025846
1.61111	8731255.19002996
1.61378	7756707.215083976
1.61644	8097239.200077091
1.6191	6930350.743984869
1.62176	7961964.6894964175
1.62441	9231110.50785682
1.62707	10954390.940607049
1.62971	11406304.346790379
1.63236	9733566.226297121
1.635	13902810.56195066
1.63764	15363665.596653227
1.64028	10546510.20833069
1.64292	8728578.14342074
1.64555	6001726.770001669
1.64818	4895838.52404608
1.65081	10204333.045515394
1.65343	12334122.557272004
1.65605	7181790.501911182
1.65867	5876136.722990884
1.66128	10219563.260356925
1.6639	7382446.271087733
1.66651	1604883.3265723658
1.66911	318884.6974032413
1.67172	1562704.1126884266
1.67432	3569026.7507835957
1.67692	6066864.932258261
1.67951	4947931.886385665
1.68211	3241551.7695498248
1.6847	1862884.0018518213
1.68728	1438126.8576275571
1.68987	1475662.734720522
1.69245	1271189.746320441
1.69503	937308.4569563301
1.6976	1031605.6405709579
1.70018	1189317.3438854755
1.70275	690591.0439923293
1.70531	891542.9179911863
1.70788	1552312.0811591116
1.71044	2934325.444075905
1.713	4980820.188413314
1.71556	5517410.894424276
1.71811	5174213.865503513
1.72066	3297110.949927124
1.72321	1831441.8289199155
1.72575	3214965.4739669394
1.7283	4525813.132857814
1.73084	4675779.922114348
1.73337	2485888.1237145998
1.73591	1666986.917396069
1.73844	2401434.93582334
1.74097	2275397.6858829265
1.74349	2537910.114040621
1.74602	3609748.222639596
1.74854	4525350.786788595
1.75105	4810537.271941592
1.75357	3603341.5294115487
1.75608	1802849.6091532984
1.75859	1222276.8235753484
1.7611	1053224.4079797638
1.7636	1590559.9881628088
1.7661	1887580.6795934157
1.7686	1653621.3160589188
1.7711	2231957.2223893874
1.77359	1572300.1046689912
1.77608	920798.5924207876
1.77857	2121355.27306129
1.78105	3098360.1540358323
1.78354	1981382.3908607725
1.78602	1384282.3068720247
1.78849	1568197.962177332
1.79097	1385748.4406198685
1.79344	1248104.2254870709
1.79591	1501175.7890736253
1.79837	2442055.277987436
1.80084	1699124.9751836113
1.8033	1339779.044323508
1.80576	1361432.1099604622
1.80821	1521272.1690043267
1.81067	1562234.1589569643
1.81312	1960951.5621097698
1.81557	1956906.7571799024
1.81801	886118.9073197969
1.82046	813074.4808768504
1.8229	1422004.4724916755
1.82533	1152890.4673979317
1.82777	906867.1298561709
1.8302	1106907.5592680806
1.83263	998342.8714704461
1.83506	700012.0385765242
1.83749	702908.8617017223
1.83991	988241.1577795953
1.84233	1391981.5768055646
1.84475	1855887.9564416942
1.84716	1331988.7257967154
1.84957	1168841.3332048345
1.85198	1425264.705770642
1.85439	1192709.5328181628
1.8568	732888.5865937512
1.8592	430450.4205965993
1.8616	589972.1310977829
1.864	692247.1954003671
1.86639	477958.85425961006
1.86878	382972.12628498935
1.87118	723372.1665935874
1.87356	799243.5277238749
1.87595	903284.3692231153
1.87833	2032633.6325170102
1.88071	2630920.623756249
1.88309	1923572.2230388352
1.88547	1655328.9301021732
1.88784	2094537.5048842973
1.89021	2305066.0201270124
1.89258	2814426.9432339654
1.89494	3981920.040642787
1.89731	3501354.1822246895
1.89967	1951869.787856482
1.90203	1729344.4006083505
1.90439	1789703.5337826211
1.90674	2268650.295050679
1.90909	2224439.596424714
1.91144	1019373.3065395756
1.91379	957721.2470941017
1.91613	1952886.7299071816
1.91848	2322777.128919438
1.92082	1521907.8111371712
1.92315	1209212.8005800762
1.92549	1438929.6249629306
1.92782	1393974.2342455585
1.93015	951449.9620795047
1.93248	522479.6651702281
1.93481	397261.59135614696
1.93713	398833.0520285343
1.93945	509085.40518920374
1.94177	1088679.7545189175
1.94409	1418444.184435452
1.94641	1436629.038702978
1.94872	1480575.2307972077
1.95103	1793319.2835284017
1.95334	1778787.889223335
1.95564	1366161.7780095795
1.95795	1275622.3085257167
1.96025	949270.5508916017
1.96255	799898.0133888278
1.96484	1374141.7952032373
1.96714	1846448.0562500677
1.96943	1785995.6583225066
1.97172	2027677.3120853368
1.97401	2003840.5583034323
1.97629	1770869.7689481126
1.97858	1896610.494909299
1.98086	1611163.344052195
1.98314	1170311.1210302631
1.98541	1591718.0198753309
1.98769	2549979.878152873
1.98996	2593713.377253149
1.99223	2275012.7309652674
1.9945	2755815.6069946536
1.99677	3086152.179658503
1.99903	2957081.192910804
2.00129	2866149.5907939696
2.00355	2851717.1547661945
2.00581	3096849.3100301353
2.00806	3441021.848170631
2.01031	3763840.0124451476
2.01256	4703105.135665025
2.01481	5161440.11424895
2.01706	4412358.920345215
2.0193	4122980.0099104554
2.02154	4714695.031388234
2.02378	5047298.132297607
2.02602	4592255.061898924
2.02825	4231443.126392878
2.03049	4532983.034657406
2.03272	5368441.648047661
2.03494	5808913.724322816
2.03717	5499078.1704124585
2.03939	5360782.638102077
2.04162	6641883.816852153
2.04384	8022967.74618273
2.04605	8162177.395676919
2.04827	7395151.12148417
2.05048	7315604.574493924
2.05269	7367897.2339229155
2.0549	6506139.49756654
2.05711	6715804.735544587
2.05931	7118130.1958463015
2.06151	7271375.224077168
2.06371	7400346.124373249
2.06591	6958454.962949678
2.06811	7154769.945065506
2.0703	8181491.388884808
2.07249	9204096.284068516
2.07468	9584250.64285783
2.07686	9172378.342723722
2.07905	8788563.934685305
2.08123	8687988.09356349
2.08341	8627710.818282362
2.08559	8466261.63862765
2.08776	8764650.801550452
2.08994	9227871.699666984
2.09211	9135041.567912875
2.09428	9333491.314956434
2.09645	9724332.865755718
2.09861	9149497.449152907
2.10077	8204440.79200197
2.10293	7941894.164794104
2.10509	8223582.927461323
2.10725	8262703.219420816
2.1094	7252904.894284158
2.11155	5830691.345963439
2.1137	5615036.255639255
2.11585	5985360.657597286
2.11799	6519529.119097792
2.12013	7276973.343586798
2.12227	7402644.704649214
2.12441	7329402.33647138
2.12655	7185103.033309051
2.12868	6743393.386868332
2.13081	6510054.453692964
2.13294	6214829.022111806
2.13507	5360810.243883922
2.13719	4744129.798755013
2.13931	5200095.441444422
2.14143	5628928.411118158
2.14355	5078618.0805419
2.14567	4336979.310999593
2.14778	3594548.7033933643
2.14989	3116245.8688031184
2.152	3294096.2986578224
2.1541	3476352.558629479
2.15621	3388456.4065561453
2.15831	3002448.3130446714
2.16041	2173779.6024761945
2.16251	1681646.4743533195
2.1646	1778531.8139402615
2.1667	1927720.4200050414
2.16879	2230983.4685763344
2.17087	2731581.0171047817
2.17296	2859531.7758431477
2.17504	2805757.0026587956
2.17713	2890416.6430348926
2.1792	2748464.5426675603
2.18128	2267551.3440780104
2.18336	1640425.4882875676
2.18543	1303299.1941335585
2.1875	1211734.827672747
2.18957	1067333.3634718761
2.19163	989774.0327891478
2.1937	1078321.4135501636
2.19576	983837.0477141764
2.19782	613563.9293900684
2.19987	284791.31273818883
2.20193	175716.06668861353
2.20398	188327.168246262
2.20603	195949.7585062888
2.20808	203119.1756319715
2.21012	217914.0059210858
2.21217	242037.82775948767
2.21421	313806.36111119634
2.21625	372828.47087833844
2.21828	366742.8887116048
2.22032	369673.3750329313
2.22235	399263.4642775196
2.22438	415159.1187386161
2.22641	393729.4781093005
2.22843	401303.4751210978
2.23046	369051.752074743
2.23248	247368.5570720823
2.2345	142812.6432462873
2.23651	102220.11304958542
2.23853	108087.6212876207
2.24054	154639.87576723285
2.24255	213503.32004872352
2.24456	256340.4362262758
2.24657	271528.06826694607
2.24857	258956.95402856305
2.25057	216367.1984363941
2.25257	151391.85633223824
2.25457	100289.68840721187
2.25656	86133.68159202034
2.25856	92498.8915857013
2.26055	94371.82460381514
2.26254	85643.07427737553
2.26453	87947.64659360233
2.26651	107819.49661236108
2.2685	117779.3501022935
2.27048	114462.41370087216
2.27246	120964.12680852103
2.27443	120792.4387818941
2.27641	121099.01895284034
2.27838	138197.90514605748
2.28036	147979.93732439436
2.28233	137359.86851270247
2.28429	117483.35562144159
2.28626	96791.19121805237
2.28823	74991.78497515622
2.29019	54089.11554000922
2.29215	40143.28881851358
2.29411	42785.309704047664
2.29607	58311.07416632248
2.29802	80481.83343093166
2.29998	114585.47559264103
2.30193	166553.56840754082
2.30388	211170.27909767034
2.30583	229978.96934967363
2.30778	253230.53482942848
2.30972	305865.6936641468
2.31167	365223.9208791878
2.31361	342546.1460771635
2.31555	235183.65908112453
2.31749	113074.74009597398
2.31943	63501.90649609801
2.32137	51331.283349256235
2.32331	46065.43504005476
2.32524	41124.06564958891
2.32718	37176.05091342044
2.32911	33952.34326165477
2.33104	32883.186373960794
2.33297	40465.84592470071
2.3349	64421.90719419724
2.33683	98297.86681464192
2.33876	114514.28113233097
2.34068	111838.52047957489
2.34261	104879.54213969847
2.34453	107308.74456526937
2.34646	125929.00405372
2.34838	155060.87920420014
2.3503	166842.72158775732
2.35223	166973.83336459397
2.35415	154529.4157777813
2.35607	132968.38764666967
2.35799	134831.5061923957
2.35991	164993.0496988781
2.36183	203649.02818679615
2.36375	229848.27996673257
2.36566	233025.28048638097
2.36758	199797.13045183272
2.3695	167414.56710496417
2.37142	160720.1364954191
2.37334	165781.6433200247
2.37526	145465.2791043207
2.37718	113255.11881624862
2.3791	93336.29279538483
2.38101	88026.27649302593
2.38293	96242.89564181113
2.38485	120913.25116940634
2.38677	166380.0950379165
2.3887	199935.879624218
2.39062	192965.56962674923
2.39254	178765.88442282745
2.39446	196212.230169701
2.39639	228222.5426533645
2.39831	252057.9257574199
2.40024	289398.8567560243
2.40216	332270.38063347014
2.40409	377191.41577278724
2.40602	361256.5619211815
2.40795	307407.5779030247
2.40989	288940.7861610824
2.41182	333753.0921599593
2.41376	382270.5201898906
2.4157	449424.74706699944
2.41764	486794.54420539085
2.41958	462126.1436161376
2.42152	389730.37893951987
2.42347	347651.72231557744
2.42542	375131.13146564
