#wavelength	surface flux
0.676892	18815.4585998561
0.678297	19589.61706407265
0.679702	20307.843584824313
0.681109	20979.03254936811
0.682517	21553.346300744586
0.683926	22094.29259753024
0.685337	22544.78183292003
0.686749	22899.05078047537
0.688164	23153.694066806864
0.689581	23290.45237479913
0.691	23170.304336434467
0.692422	22511.905939066506
0.693847	22610.063569288446
0.695274	22534.640237804877
0.696705	22486.382942851826
0.698139	22252.802241232945
0.699576	21695.842397002285
0.701017	21166.16748453206
0.702461	20443.897938817652
0.70391	20003.2023560982
0.705362	19312.590403206475
0.706819	18641.199491542753
0.70828	17956.128122811766
0.709745	17063.493447387027
0.711216	16267.995959430082
0.71269	15406.297172161727
0.71417	14668.812954026242
0.715655	13450.5432053895
0.717145	11899.072588619692
0.71864	10955.288663496249
0.72014	10558.951186421153
0.721647	10062.060384018672
0.723158	9562.563612808617
0.724676	8765.54229936782
0.726199	8009.528193686178
0.727728	7166.410110859075
0.729264	6971.8997489552075
0.730805	6333.111677013068
0.732353	6361.684096945936
0.733907	6049.109041098967
0.735468	5475.6059000698215
0.737035	5311.913480299128
0.738609	4968.073883383846
0.74019	4700.24586827573
0.741777	4430.820158044146
0.743372	4198.161861034295
0.744973	3943.204219837306
0.746582	3673.2898500930783
0.748197	3407.7085283471606
0.74982	3182.6053576574545
0.751451	2939.9479434922146
0.753088	2698.610113342939
0.754734	2462.86605418429
0.756386	2235.418193260007
0.758047	2009.4616391482195
0.759715	1780.239352696357
0.76139	1519.1474718994134
0.763074	1163.7419390489101
0.764765	647.1926460994252
0.766464	206.3521570829729
0.768172	439.8143344716136
0.769887	308.66188026058313
0.77161	965.2811131775387
0.773341	1691.5982383047165
0.775081	2226.023416876792
0.776829	2698.6575780249627
0.778585	2892.300476110725
0.780349	2691.1462403940236
0.782121	4214.181653111394
0.783902	5007.5270729108215
0.785691	5760.200214226597
0.787489	6605.380171674255
0.789295	7511.436308368539
0.79111	8476.784211551867
0.792933	8788.787668781468
0.794764	6556.213440691139
0.796604	11178.976962775429
0.798453	13630.532499228859
0.80031	15502.871946439936
0.802176	17450.141675663177
0.804051	19765.394702370326
0.805934	22070.630013820577
0.807826	24767.13625073547
0.809727	27318.481216548797
0.811636	29594.278455661348
0.813554	30845.84887416428
0.81548	36372.54389491377
0.817416	42200.37230800958
0.81936	47776.32777183788
0.821313	54281.38336502787
0.823274	56864.33458783902
0.825244	65143.37838153775
0.827223	75173.62054025984
0.829211	81981.19981343696
0.831208	88318.62319442873
0.833213	100930.60512345325
0.835227	110810.62813189712
0.837249	120151.0406661366
0.83928	137195.06539662095
0.841321	150891.92354022176
0.843369	167493.92660722567
0.845427	182163.73607009792
0.847493	204855.8728239703
0.849567	217475.09054773077
0.851651	169743.29672130407
0.853742	244458.51598488583
0.855843	291322.38927510276
0.857952	317203.65895365924
0.86007	344795.3228688796
0.862196	367596.4759547907
0.864331	396663.31681326224
0.866474	432133.90482854686
0.868626	471869.4657609075
0.870786	511082.80513507547
0.872955	553370.0326745044
0.875132	590730.5856381584
0.877317	622764.1098542818
0.879511	658864.1530685779
0.881713	614965.477596592
0.883923	594076.5370019015
0.886142	633069.377961181
0.888369	610121.8691985663
0.890604	656180.9805218779
0.892847	537274.3201247811
0.895099	456764.7881364264
0.897358	707953.8191484559
0.899626	833161.9597995641
0.901901	1032987.3343100543
0.904185	1284791.880965424
0.906476	1403991.3959212436
0.908776	1228679.0716098936
0.911083	1394053.1390909047
0.913398	1329944.17691181
0.915721	1512622.9464817825
0.918051	1489376.8323323978
0.92039	1709729.7931700922
0.922736	1782194.5499911676
0.925089	1492232.0678675855
0.927451	770572.6470922012
0.929819	345862.98607421963
0.932195	342464.13199430745
0.934579	422802.62002038717
0.93697	964983.3440151607
0.939369	1404604.605018484
0.941774	1362788.8418246843
0.944187	994880.374192715
0.946607	1070930.5752278904
0.949035	1194144.0131750426
0.951469	897557.18692722
0.953911	968314.1648425522
0.956359	705880.7765485941
0.958814	1129256.0335381245
0.961277	644506.7339022072
0.963746	1038782.3615080765
0.966222	1390600.5817236712
0.968705	1984289.054210884
0.971194	2262326.9432686106
0.97369	1968380.0423921507
0.976193	2529211.8452862315
0.978702	2615549.797420436
0.981217	2707208.2733479766
0.983739	2467747.4868266783
0.986268	3170971.3949391237
0.988802	3245629.3755543227
0.991343	3691873.4039571406
0.99389	4174191.760946599
0.996444	4613155.689204058
0.999003	4692286.953707755
1.00157	5537038.73614386
1.00414	6232617.043717423
1.00672	6807225.48609472
1.0093	6920684.650352508
1.01189	7280561.28027482
1.01448	7543415.596401944
1.01708	7763521.182220542
1.01969	7861575.141013054
1.0223	8464940.43454541
1.02492	9000639.179549044
1.02754	9449600.144808283
1.03017	9674252.904143587
1.0328	9312696.073642397
1.03544	10248818.724550696
1.03808	10835225.18100098
1.04073	11002379.84119343
1.04339	11447621.65530437
1.04604	11974139.595863117
1.04871	12101104.326710887
1.05138	12407089.914837277
1.05405	12917234.66357166
1.05673	13343749.745804409
1.05941	13494531.318065498
1.0621	13769784.974943254
1.06479	13623192.74318426
1.06749	13672136.602119597
1.07019	13676509.245987188
1.07289	13881697.06677013
1.0756	13862419.130030258
1.07832	13396101.2651535
1.08104	13514377.247789908
1.08376	13666810.424312415
1.08649	12141450.404654738
1.08922	10144595.560218051
1.09195	8340305.884820636
1.09469	6434681.879059348
1.09743	5097172.032186164
1.10018	3305636.2895669304
1.10293	2047414.1286837473
1.10568	1334625.1846945316
1.10844	1325899.057615217
1.1112	646772.4629615208
1.11396	521125.83166940376
1.11673	406985.3191634749
1.1195	517253.80213690817
1.12228	378607.16383321374
1.12505	849645.602992185
1.12783	848439.3797757489
1.13062	944860.2067912167
1.13341	317769.28803445067
1.1362	456240.2251060301
1.13899	1406093.4312737943
1.14178	1632585.36912839
1.14458	766806.885908571
1.14738	756709.5957746824
1.15019	1260389.7588289524
1.153	747039.6163326845
1.1558	587366.0457542513
1.15862	925478.6342529848
1.16143	501699.5628669259
1.16425	513721.7892680154
1.16707	722225.5715334594
1.16989	1242282.5599201738
1.17271	1816241.653914981
1.17554	2041070.8365461433
1.17837	1925195.3750922105
1.1812	3543727.7380356756
1.18403	3845930.112833236
1.18686	3843132.78635349
1.1897	4702730.647624239
1.19253	5497862.550696842
1.19537	6451894.335732284
1.19822	6900938.120909682
1.20106	7694519.248334831
1.2039	8664438.963724395
1.20675	9977119.309374839
1.2096	9544451.321312733
1.21245	9829246.853756102
1.2153	10941247.27863866
1.21815	10614746.040106094
1.221	11923422.217192058
1.22385	12615732.3942846
1.22671	13582538.820461497
1.22957	15568868.869403537
1.23242	15772737.684975319
1.23528	16493482.28987797
1.23814	16708403.709368706
1.241	17137195.29392614
1.24387	16677197.916644216
1.24673	18790424.781419806
1.24959	17774268.64765524
1.25245	15923792.913138349
1.25532	19819734.449453063
1.25818	21606352.467665367
1.26105	22771555.658068344
1.26392	21999205.2992198
1.26678	22171191.547422245
1.26965	21199480.047980577
1.27252	20808640.091848247
1.27538	20404566.64472133
1.27825	19202972.759849872
1.28112	17528596.960474733
1.28399	13931731.924323142
1.28686	12712961.255602408
1.28973	12357732.806807898
1.2926	11465549.09680153
1.29546	9907015.595237661
1.29833	10131194.471814645
1.3012	10219759.220228769
1.30407	10659619.152489562
1.30694	9283540.57651065
1.30981	9649349.856100757
1.31267	8571594.725768644
1.31554	6906024.998619524
1.31841	6114416.263675988
1.32128	8363396.227757852
1.32414	5342197.700421573
1.32701	3817759.1485178913
1.32987	1742871.977414447
1.33274	1000350.690850184
1.3356	877044.3008557701
1.33847	130102.93799999809
1.34133	64049.80423250832
1.34419	83699.10437550096
1.34705	43851.801607111214
1.34991	45603.60059552019
1.35277	38470.08620631734
1.35563	15726.142117800513
1.35849	10694.455086417764
1.36135	16665.112276873275
1.3642	38713.38617253009
1.36706	27828.389700971435
1.36991	29650.38739540714
1.37277	31959.940423884724
1.37562	69854.65292735414
1.37847	65565.75106274696
1.38132	28832.162259573106
1.38417	11057.017645882428
1.38701	7307.318814446733
1.38986	32919.575338884286
1.39271	53633.23409041812
1.39555	20433.354356271597
1.39839	24017.12024256779
1.40123	37737.10869241723
1.40407	49227.64243821639
1.40691	43001.98302332567
1.40974	26705.69323000879
1.41258	46096.17342147093
1.41541	72007.70024206657
1.41824	36226.04758973875
1.42107	16498.878434954742
1.4239	20306.612903776077
1.42673	80507.62261619631
1.42955	157967.22544244106
1.43237	103491.25950811026
1.43519	168596.8583894545
1.43801	168444.01208354227
1.44083	149600.4545637881
1.44365	209362.92025095338
1.44646	160591.41668784036
1.44927	299794.30424504925
1.45208	518823.3376059776
1.45489	341970.8720584492
1.45769	597943.9066620062
1.4605	591386.705452003
1.4633	375840.18459768046
1.4661	575680.6231860729
1.4689	485845.45426847425
1.47169	410482.0718732319
1.47449	315523.16990040435
1.47728	273079.20039798354
1.48007	284387.67742974305
1.48286	462293.32992194983
1.48564	423005.1822014487
1.48842	359964.97005614813
1.4912	471464.35292490723
1.49398	389932.3217787436
1.49676	490249.8770668432
1.49953	767758.0687712266
1.5023	823696.4112142975
1.50507	953851.5336649364
1.50784	950753.6083806979
1.51061	798407.4292488435
1.51337	610881.9774004798
1.51613	613963.4833332279
1.51888	723153.0902220844
1.52164	998554.437857516
1.52439	1173395.612107317
1.52714	1136641.1817245323
1.52989	1558825.1543195806
1.53263	1814847.3074123855
1.53538	2049797.4431471943
1.53812	2297418.9826061553
1.54086	1743314.2821627904
1.54359	2179612.541370539
1.54632	2374090.1939430316
1.54905	2328163.811581809
1.55178	2219217.647716772
1.5545	2866397.2902657385
1.55723	3597569.3929652446
1.55995	4193292.845557516
1.56266	4049504.5863843425
1.56538	5658295.304413029
1.56809	6586171.1410377
1.5708	6650459.097470117
1.57351	6306095.583065473
1.57621	7075765.206958916
1.57891	6915124.087899204
1.58161	7435446.557259562
1.5843	7393360.2615970755
1.587	7448194.115321066
1.58969	6994856.8254341055
1.59238	6273793.9622415975
1.59506	6846465.657183536
1.59774	7068841.153500797
1.60042	6347609.7270285105
1.6031	5522320.4427983565
1.60577	4910957.454383871
1.60844	4281094.361546617
1.61111	3864410.1319845635
1.61378	3233205.32703585
1.61644	2686190.871729106
1.6191	2252564.82301858
1.62176	2397522.6509575136
1.62441	2432633.7607126664
1.62707	2269074.1631772625
1.62971	2210344.8497947264
1.63236	1963469.2531479807
1.635	2487035.2927381443
1.63764	2917692.403037025
1.64028	2824250.6025421876
1.64292	2570854.851808517
1.64555	2018452.6586623674
1.64818	1727487.8430028537
1.65081	2550337.814349083
1.65343	2805114.9273199
1.65605	1873303.237703356
1.65867	2212713.238206883
1.66128	3210822.6624301844
1.6639	2210842.9134909823
1.66651	447994.4777844581
1.66911	203415.53458894073
1.67172	927268.802551908
1.67432	1630996.0120490976
1.67692	1939494.268995137
1.67951	1631014.5837765082
1.68211	1119661.6948616279
1.6847	800884.7925159925
1.68728	780911.737021303
1.68987	757211.4120493828
1.69245	506783.6083046887
1.69503	531092.6096768439
1.6976	439951.51135002443
1.70018	384128.90539313975
1.70275	315007.30015301006
1.70531	355718.97310624976
1.70788	634621.4480968317
1.71044	992695.3851846327
1.713	1385186.7514787142
1.71556	1534175.917721184
1.71811	1548450.5761288633
1.72066	1286542.5442081376
1.72321	830070.664614783
1.72575	1176135.712057535
1.7283	1332671.7510165223
1.73084	1313121.750535761
1.73337	1042156.5965500395
1.73591	958229.2990902083
1.73844	1223342.055455656
1.74097	1297688.1146417228
1.74349	1314579.5976374515
1.74602	1443194.5546724293
1.74854	1742536.515727396
1.75105	1711905.964491367
1.75357	1190933.723499329
1.75608	597840.7330417387
1.75859	596672.4483723815
1.7611	587685.7336880881
1.7636	577119.9780564824
1.7661	583599.3454863849
1.7686	492457.41218243673
1.7711	577589.9844802658
1.77359	522853.81006231875
1.77608	345744.4582119198
1.77857	425480.4940988565
1.78105	538212.4101958495
1.78354	365325.4286779219
1.78602	245073.9854945821
1.78849	322056.1604839737
1.79097	278457.93253194535
1.79344	214663.42867230697
1.79591	283391.4821649716
1.79837	426174.8193602275
1.80084	248715.94513081884
1.8033	147830.25612607686
1.80576	162867.67605290376
1.80821	173471.8352781361
1.81067	173421.29968906127
1.81312	221727.93093911398
1.81557	231062.09368195283
1.81801	156697.93444590978
1.82046	123326.4153412247
1.8229	188738.11318834467
1.82533	175700.5276712526
1.82777	90016.39348883748
1.8302	81846.33760828983
1.83263	99495.49379703567
1.83506	86027.08395710288
1.83749	68242.15967547438
1.83991	85758.31881611625
1.84233	154117.9480706911
1.84475	268363.1845720831
1.84716	187237.83568119732
1.84957	188870.6330528772
1.85198	284709.31062085606
1.85439	198058.55658405108
1.8568	97939.64073993542
1.8592	55547.87544149552
1.8616	72654.19471459025
1.864	87404.22759655057
1.86639	66953.17690881091
1.86878	37866.94693915564
1.87118	49748.268507931774
1.87356	71209.4816504549
1.87595	126770.43779746271
1.87833	307060.29248945805
1.88071	396472.83310138696
1.88309	312525.0698279618
1.88547	252609.75510790225
1.88784	300568.6986707979
1.89021	305744.1706102087
1.89258	354619.31691984314
1.89494	507806.79952301027
1.89731	432832.4412003394
1.89967	232379.39591276844
1.90203	211195.79003900877
1.90439	176689.29240376537
1.90674	193848.57093113143
1.90909	194473.43790947294
1.91144	84814.16892218856
1.91379	70080.6881265224
1.91613	148279.7731433997
1.91848	170854.89708179783
1.92082	109742.53612727461
1.92315	91035.59893442111
1.92549	100712.56839280327
1.92782	98812.83979554483
1.93015	75985.9203195072
1.93248	56897.13446667698
1.93481	59162.598714701606
1.93713	57939.033176048215
1.93945	60225.528618355755
1.94177	105230.0783398471
1.94409	115704.77020077671
1.94641	90950.17453237268
1.94872	71297.49377538635
1.95103	87741.37278592733
1.95334	108450.91637991376
1.95564	113534.20361738364
1.95795	133346.94254980274
1.96025	118819.537488111
1.96255	102892.75056629413
1.96484	164798.81603226493
1.96714	232369.0557808536
1.96943	219702.8981437272
1.97172	198739.69261903854
1.97401	195048.25348041402
1.97629	221505.30163720893
1.97858	247661.35544674497
1.98086	194737.5032537403
1.98314	147178.39450748987
1.98541	222471.88590420788
1.98769	321286.03589731106
1.98996	283220.8836831324
1.99223	240246.6441497838
1.9945	330452.56227176695
1.99677	429156.4778087552
1.99903	458968.69460041245
2.00129	448208.6707549556
2.00355	417022.59512180515
2.00581	430571.6790796103
2.00806	484028.39138166147
2.01031	486157.4945670347
2.01256	516359.24807200825
2.01481	522608.61210832675
2.01706	446368.9944650514
2.0193	419945.222517262
2.02154	505117.51879797596
2.02378	599858.9136907303
2.02602	565604.3721867378
2.02825	455993.1645793294
2.03049	479285.74172687304
2.03272	626519.7483424625
2.03494	714567.915989366
2.03717	686375.2308049301
2.03939	674217.0451826856
2.04162	816606.0218252919
2.04384	964388.8905626376
2.04605	1021058.2693142829
2.04827	985974.5052669268
2.05048	987480.9489060051
2.05269	1046462.6850390647
2.0549	1054794.1043544868
2.05711	1042938.8867153063
2.05931	1047667.309898913
2.06151	1158800.3659241654
2.06371	1274625.0828431065
2.06591	1275713.8597043732
2.06811	1245550.1418579824
2.0703	1314300.1998933947
2.07249	1431661.213352925
2.07468	1492182.2524976474
2.07686	1528470.0266991707
2.07905	1527259.1865722241
2.08123	1478806.0416316385
2.08341	1478580.1476017218
2.08559	1509453.8091020938
2.08776	1534921.7523053386
2.08994	1562024.4547354155
2.09211	1531412.3089852224
2.09428	1486489.6015565433
2.09645	1495705.3435973623
2.09861	1497901.4231035828
2.10077	1464252.1051158162
2.10293	1476193.729022784
2.10509	1536561.5666123654
2.10725	1555841.2439553887
2.1094	1492306.9805374339
2.11155	1396133.475573897
2.1137	1373642.9154842535
2.11585	1399918.5053462605
2.11799	1418374.1383530789
2.12013	1436971.9728276443
2.12227	1419744.8558937316
2.12441	1402812.3910772423
2.12655	1393218.6848037923
2.12868	1356830.9876670737
2.13081	1318384.8611256704
2.13294	1281218.6280918834
2.13507	1209481.1872394977
2.13719	1169609.856537125
2.13931	1225499.341518182
2.14143	1246500.808652596
2.14355	1159344.7581447936
2.14567	1038541.5770129015
2.14778	924541.9643799681
2.14989	866088.273588119
2.152	861210.0456715635
2.1541	828424.9191026615
2.15621	779984.8977218297
2.15831	727290.3471918745
2.16041	596372.042617607
2.16251	483171.696341997
2.1646	499429.4164786464
2.1667	564294.3139710934
2.16879	617763.8027902927
2.17087	666761.3327730461
2.17296	669809.3093046325
2.17504	653862.7854821404
2.17713	645357.9366363197
2.1792	574975.2103246797
2.18128	458229.8041167601
2.18336	399158.5677466487
2.18543	442728.56604620337
2.1875	470413.92157586664
2.18957	405103.86254382797
2.19163	332078.1676914245
2.1937	295277.28418252314
2.19576	252785.416953403
2.19782	176695.0499903056
2.19987	96372.5920797952
2.20193	62728.83101676703
2.20398	70385.09301187038
2.20603	86160.40180739015
2.20808	91509.01093558778
2.21012	82193.25955470059
2.21217	76766.93907461896
2.21421	101593.04589566801
2.21625	130651.39298837025
2.21828	131786.75712305473
2.22032	116378.12433682036
2.22235	115714.63038029095
2.22438	127173.50219802847
2.22641	108804.30311078101
2.22843	70863.73444228324
2.23046	48499.95095503176
2.23248	47242.90907942556
2.2345	50957.7930469176
2.23651	45663.484586659935
2.23853	42147.179456983715
2.24054	50606.37978079255
2.24255	60843.640901551174
2.24456	62764.71404734169
2.24657	53619.24236473916
2.24857	41970.62367966002
2.25057	35258.11177672056
2.25257	28826.85054577192
2.25457	21488.33205344703
2.25656	19643.04092258965
2.25856	28653.914444164304
2.26055	38500.911322162996
2.26254	38728.4653317308
2.26453	33109.42165140262
2.26651	31766.80936820228
2.2685	34226.50184024
2.27048	38230.723973610926
2.27246	49053.025925847185
2.27443	54718.1367700992
2.27641	52831.967348992934
2.27838	54025.13004506042
2.28036	53918.75042807847
2.28233	44649.26844293212
2.28429	35958.33293585487
2.28626	30564.821326934405
2.28823	26505.460430155614
2.29019	23074.060180398563
2.29215	20747.298224070273
2.29411	21669.661471639312
2.29607	25288.78612160031
2.29802	29112.52398287903
2.29998	32990.21148062084
2.30193	42955.832605659736
2.30388	56880.820184397424
2.30583	70720.3742004383
2.30778	92057.31694242936
2.30972	130296.96551132257
2.31167	162004.7188834234
2.31361	146009.21423833648
2.31555	90791.83686727179
2.31749	37014.532708349725
2.31943	17474.47534915292
2.32137	16833.731521582507
2.32331	19062.68248073809
2.32524	17515.402085767593
2.32718	13819.827564153275
2.32911	11259.7936511097
2.33104	11006.49575843022
2.33297	15181.13457373429
2.3349	23749.006975259163
2.33683	32141.70074725797
2.33876	34366.69432725635
2.34068	32045.384923782774
2.34261	29482.65998851875
2.34453	28790.795878974084
2.34646	32394.024229060433
2.34838	40352.647462709676
2.3503	44320.810002712424
2.35223	45736.53656885549
2.35415	44244.07155746398
2.35607	44541.178158806266
2.35799	59907.54575300207
2.35991	79771.5775233011
2.36183	89094.121550407
2.36375	89468.79389186196
2.36566	88820.53397892244
2.36758	72852.82418182885
2.3695	49585.309744216276
2.37142	34703.038672672235
2.37334	34445.179719068525
2.37526	38624.5916528531
2.37718	40961.77806657216
2.3791	44228.410841710654
2.38101	48522.43102282207
2.38293	51942.664096303946
2.38485	52201.16108729692
2.38677	58716.90656695826
2.3887	73027.1302660887
2.39062	85916.75581851442
2.39254	92083.77892553105
2.39446	94626.98015242546
2.39639	95933.9638390383
2.39831	97800.85575680749
2.40024	116088.96796405056
2.40216	134756.12710183303
2.40409	140063.26716841286
2.40602	118222.6229746998
2.40795	99531.71779514587
2.40989	113652.58435304358
2.41182	153208.34000870163
2.41376	171934.08788806046
2.4157	165164.1436984116
2.41764	155843.25100577978
2.41958	159030.4131153513
2.42152	163067.7014277785
2.42347	157164.21417634794
2.42542	145981.5083699458
