#wavelength	surface flux
0.676892	466233.0587227975
0.678297	495931.4492542616
0.679702	523755.00264852575
0.681109	549917.5155529936
0.682517	573516.9272107484
0.683926	596557.9505782564
0.685337	617060.6381166112
0.686749	635025.9181461526
0.688164	650702.9186092062
0.689581	662338.9136900693
0.691	660016.3399917952
0.692422	667174.2456271782
0.693847	659783.8829005101
0.695274	680716.3792597966
0.696705	684127.7859960065
0.698139	684035.1579448441
0.699576	678027.663699173
0.701017	668745.7754599369
0.702461	657288.4457620137
0.70391	645846.448545092
0.705362	627526.3423763827
0.706819	609622.5634872521
0.70828	591421.9016046758
0.709745	567423.4044821926
0.711216	544496.7489355147
0.71269	520672.80784743675
0.71417	495926.9464185591
0.715655	461101.6749246848
0.717145	427290.1504389268
0.71864	397799.08610707906
0.72014	377590.12365392485
0.721647	355127.44825358194
0.723158	338198.32773590117
0.724676	310420.5747513241
0.726199	282742.1174573875
0.727728	249630.2152837467
0.729264	238043.8588377576
0.730805	214115.40959882585
0.732353	200343.33732663543
0.733907	180342.12008441423
0.735468	156122.97639885815
0.737035	144294.23156373188
0.738609	127745.48372496545
0.74019	112472.65657436216
0.741777	97868.25973745256
0.743372	84715.80905720998
0.744973	72213.96771386206
0.746582	60686.87070253797
0.748197	50235.825966572884
0.74982	41373.323617700866
0.751451	33350.69305879591
0.753088	26451.128163941634
0.754734	20615.128305714494
0.756386	15753.40570312313
0.758047	11780.522591656838
0.759715	8590.184935102225
0.76139	6039.935579344012
0.763074	3944.497140053453
0.764765	2024.8726890677403
0.766464	616.0923653518572
0.768172	1350.4819063401578
0.769887	930.4014380777027
0.77161	3062.672554384675
0.773341	6062.597404638276
0.775081	9566.487000182458
0.776829	14047.723429073505
0.778585	17625.062067702107
0.780349	18757.753737653777
0.782121	35995.217157965184
0.783902	49208.68217738819
0.785691	64281.09289117322
0.787489	82542.68589670522
0.789295	103855.55898498544
0.79111	127589.80039809899
0.792933	138166.07406154918
0.794764	92463.07582205135
0.796604	201732.71262118762
0.798453	267075.4680744261
0.80031	319605.65439941897
0.802176	374973.63339102175
0.804051	438115.47816234024
0.805934	503943.76834499976
0.807826	577130.0575725212
0.809727	654493.6569238161
0.811636	734240.3945213115
0.813554	810916.9209008325
0.81548	925603.0809508885
0.817416	1034770.173508464
0.81936	1051754.065100853
0.821313	1301970.1882424548
0.823274	1455875.027422171
0.825244	1592686.004033971
0.827223	1793062.6207396921
0.829211	1935215.2886639298
0.831208	2087091.8072471258
0.833213	2371363.5110214124
0.835227	2559803.135149069
0.837249	2679834.7359335385
0.83928	3017810.8090723646
0.841321	3320935.0296449186
0.843369	3593421.2940583555
0.845427	3843771.9231356275
0.847493	4238703.409866225
0.849567	4267399.610763848
0.851651	2911396.507214999
0.853742	4595955.287947769
0.855843	5636287.426677558
0.857952	6113196.538022186
0.86007	6385863.442000415
0.862196	4828822.757473177
0.864331	5264395.881788158
0.866474	5973969.380417818
0.868626	6277170.185121825
0.870786	6142809.617405956
0.872955	6494009.945875248
0.875132	6134282.964776314
0.877317	8531878.834872253
0.879511	9013903.1771281
0.881713	8333038.051974923
0.883923	8973825.014138883
0.886142	9980137.37489796
0.888369	9363812.473527884
0.890604	10883313.466776935
0.892847	8642560.083601149
0.895099	7494061.931244546
0.897358	11830843.890905788
0.899626	13794468.350163756
0.901901	15692844.265226794
0.904185	18389411.44473348
0.906476	17548876.50471577
0.908776	15463150.882468523
0.911083	17737837.956473246
0.913398	18730311.302323584
0.915721	21608540.049403895
0.918051	22227065.283053447
0.92039	25382658.5232798
0.922736	24845817.038141895
0.925089	22879942.13296027
0.927451	17906346.97642925
0.929819	12752423.776946953
0.932195	10562961.2466668
0.934579	11251272.757361436
0.93697	22261630.103813462
0.939369	25136681.703890115
0.941774	23423893.038848672
0.944187	20332857.063617717
0.946607	26157723.46610772
0.949035	28010770.461909935
0.951469	19563856.645676266
0.953911	22964865.93025364
0.956359	18815306.99679255
0.958814	26607677.48511749
0.961277	18955273.565232143
0.963746	18924253.27660297
0.966222	26899025.834747307
0.968705	29932790.47939456
0.971194	33742446.34795306
0.97369	30956097.760409877
0.976193	39306317.6568361
0.978702	37161592.5934496
0.981217	39715953.12254946
0.983739	34024219.80956844
0.986268	42267212.496112354
0.988802	44318026.85019802
0.991343	36680644.60631204
0.99389	42885017.57443011
0.996444	43774843.15674074
0.999003	27257053.850323644
1.00157	27293853.254682925
1.00414	31674372.14508254
1.00672	33097935.40361848
1.0093	33751148.3215484
1.01189	35886518.45929613
1.01448	44353598.40216186
1.01708	45814887.340923816
1.01969	54591677.0076229
1.0223	55155556.3718089
1.02492	55570500.69536303
1.02754	55448824.62862758
1.03017	66254568.34619719
1.0328	66845199.769938864
1.03544	67405425.47011845
1.03808	81253311.98262359
1.04073	79453873.99862635
1.04339	80246412.59734714
1.04604	76422460.09509763
1.04871	77481611.7426426
1.05138	79670760.50190443
1.05405	86380621.13939239
1.05673	82843676.09240617
1.05941	93572452.01148506
1.0621	90178407.39448904
1.06479	96846259.45277096
1.06749	99822353.00003271
1.07019	108977504.06381239
1.07289	105594599.95464174
1.0756	109504947.69447939
1.07832	110936696.57682908
1.08104	111376401.08248258
1.08376	115482571.82265219
1.08649	103671456.48795065
1.08922	90234679.53421876
1.09195	78768160.53723434
1.09469	72220624.86539322
1.09743	56096454.79978199
1.10018	49649103.6698548
1.10293	39221747.68639031
1.10568	28526908.07332717
1.10844	35401955.324727245
1.1112	27209744.142181385
1.11396	22940447.745910324
1.11673	17365003.19219583
1.1195	25375196.74390258
1.12228	19782619.212719757
1.12505	25869985.84670727
1.12783	33947060.76896153
1.13062	30727060.819113705
1.13341	11662886.558971683
1.1362	15334071.706469547
1.13899	20751302.335091773
1.14178	32308678.876427215
1.14458	25424846.517719798
1.14738	26080198.85109597
1.15019	42145622.19826599
1.153	30676032.125353165
1.1558	23564317.46713412
1.15862	36522961.54077011
1.16143	21790825.767864645
1.16425	15305960.822524218
1.16707	19527612.597593736
1.16989	21576841.36547525
1.17271	32911909.8830785
1.17554	27103996.51275176
1.17837	18793462.978895076
1.1812	42425436.46013673
1.18403	46207677.463188946
1.18686	43728790.406184554
1.1897	50069041.11767761
1.19253	56326933.64919515
1.19537	64544485.92618229
1.19822	63111037.62463508
1.20106	68889307.06968734
1.2039	73713114.94592917
1.20675	82988336.83313653
1.2096	94023402.13831908
1.21245	98405544.42492792
1.2153	102083259.3951269
1.21815	103088530.4471708
1.221	109953388.02142465
1.22385	118162597.06231248
1.22671	122622476.07655431
1.22957	130011422.28901906
1.23242	133966336.54323864
1.23528	127648114.34752697
1.23814	131459259.39047869
1.241	122525559.56550632
1.24387	99263865.08689396
1.24673	136012112.12290227
1.24959	116033947.93657161
1.25245	72939335.13490632
1.25532	131242711.69599801
1.25818	152428509.97563246
1.26105	164235749.36611503
1.26392	141119911.86394978
1.26678	156287427.76465037
1.26965	141050675.23493737
1.27252	161269571.56632394
1.27538	165798507.7580282
1.27825	158112318.6807452
1.28112	159816450.31412956
1.28399	126767088.27863236
1.28686	133930592.24400765
1.28973	129415364.08168685
1.2926	133278720.8961492
1.29546	112776968.4872087
1.29833	101580996.34616145
1.3012	126735388.59618655
1.30407	131655375.72251378
1.30694	106480297.56780928
1.30981	113770201.96933559
1.31267	117038904.86032645
1.31554	93940474.51536106
1.31841	85735832.62921722
1.32128	100614646.55264166
1.32414	68437104.6193305
1.32701	41418828.67323242
1.32987	30600067.732939553
1.33274	19413118.67960972
1.3356	13977596.676594863
1.33847	3590410.7825451177
1.34133	2997348.4506289675
1.34419	3972283.7030189144
1.34705	3074100.372496084
1.34991	4157389.2902508005
1.35277	4701633.967141291
1.35563	1790822.358995274
1.35849	1826295.4887567644
1.36135	2607931.604912706
1.3642	4080566.343625103
1.36706	3619820.2923128456
1.36991	3204660.083779282
1.37277	3594854.918307702
1.37562	2574587.5385114425
1.37847	1981091.1940359878
1.38132	3409970.7069388945
1.38417	1618322.994558028
1.38701	454456.3999833756
1.38986	2432897.2961826418
1.39271	3362692.060586536
1.39555	1972930.8573547094
1.39839	3220358.3926303694
1.40123	4553906.705098381
1.40407	4283014.91560238
1.40691	3053709.6463338775
1.40974	2172302.674866782
1.41258	3576893.1743290294
1.41541	3864281.5652597616
1.41824	1726219.805676646
1.42107	1008739.4918224525
1.4239	1120036.412247858
1.42673	4088261.731083802
1.42955	5504861.621611905
1.43237	3409965.4753578063
1.43519	5479040.842985256
1.43801	6230121.403917236
1.44083	5106351.786829658
1.44365	5943972.392704196
1.44646	5126039.679857533
1.44927	6954811.576112787
1.45208	10592957.883864498
1.45489	8160307.830075544
1.45769	12685714.304700442
1.4605	11399776.896774882
1.4633	6703638.034854659
1.4661	11028387.157246148
1.4689	10651493.147551985
1.47169	10042779.633710496
1.47449	10086115.273363631
1.47728	10647861.063046452
1.48007	10673534.742356012
1.48286	12426237.198137922
1.48564	11760894.008844245
1.48842	12537589.282291593
1.4912	14861382.19114772
1.49398	11628725.838918654
1.49676	15725119.754975488
1.49953	16964635.213969145
1.5023	23160056.249740187
1.50507	27112792.721417554
1.50784	22209718.08247552
1.51061	25373239.334791124
1.51337	27444895.449228775
1.51613	20945929.675751768
1.51888	17944598.7215529
1.52164	22704815.106589884
1.52439	29446709.057068594
1.52714	24131911.26986581
1.52989	26128811.277606886
1.53263	32398898.058567602
1.53538	38433685.4399678
1.53812	34241751.9176306
1.54086	29694758.428593658
1.54359	26585207.886483073
1.54632	36197406.325058475
1.54905	38388937.28004436
1.55178	37739291.46137336
1.5545	37784551.880199805
1.55723	41332672.8823232
1.55995	46304304.94176036
1.56266	43472797.05820226
1.56538	50586139.81663437
1.56809	60025060.03634133
1.5708	56385921.80718931
1.57351	57383833.674596526
1.57621	56677192.92495077
1.57891	55512640.28569983
1.58161	61601946.63046772
1.5843	60970313.570548706
1.587	61730424.730423585
1.58969	58346161.479561
1.59238	53412944.57800962
1.59506	60222473.83281449
1.59774	63381978.67019368
1.60042	57960797.15507313
1.6031	53697349.74320259
1.60577	49642513.20270306
1.60844	45040005.98515096
1.61111	49123659.40700277
1.61378	47110011.13122111
1.61644	43952597.81766391
1.6191	40089924.80711557
1.62176	45015192.75486595
1.62441	45219716.013604045
1.62707	47122495.7198773
1.62971	44940873.610866964
1.63236	47371245.29687838
1.635	54908191.50121854
1.63764	59226040.69197785
1.64028	45183288.301384956
1.64292	45555445.44835112
1.64555	39699486.190536864
1.64818	40258229.693418674
1.65081	50709161.75849786
1.65343	49885742.17398497
1.65605	39697391.89438441
1.65867	39186031.22902449
1.66128	52287528.68840538
1.6639	42980206.53199864
1.66651	13591011.340850232
1.66911	6132310.334699784
1.67172	18656961.76722593
1.67432	30820738.360110883
1.67692	38654846.956584
1.67951	35143271.71808007
1.68211	29986570.69288387
1.6847	21546712.82451464
1.68728	21755033.244589426
1.68987	21401101.14790307
1.69245	17822913.701225232
1.69503	16574525.677143008
1.6976	16508159.120644858
1.70018	17689430.326225236
1.70275	13305678.74261558
1.70531	12459130.730606299
1.70788	17835634.98486395
1.71044	23079013.693042852
1.713	27728968.42309527
1.71556	29183620.076679327
1.71811	29418516.870306678
1.72066	23436565.20319859
1.72321	14343094.919221373
1.72575	19001691.203978885
1.7283	24753588.12401205
1.73084	24745866.102442637
1.73337	17503674.520995192
1.73591	15574787.701239448
1.73844	18070094.35311445
1.74097	16506033.460720303
1.74349	15524099.250829585
1.74602	18379671.817836
1.74854	23610713.010448307
1.75105	23466035.079844646
1.75357	16985902.9108157
1.75608	11101347.375473592
1.75859	10576195.105128312
1.7611	10415001.829235379
1.7636	11982979.161460645
1.7661	11594209.928614112
1.7686	9927464.032545641
1.7711	11644215.353060585
1.77359	9677526.320034958
1.77608	6680952.97418832
1.77857	9241396.630404152
1.78105	11274502.991072206
1.78354	8126253.88915937
1.78602	6901574.526426478
1.78849	8509056.138131721
1.79097	7534766.250739712
1.79344	6719903.323480543
1.79591	8086126.364407102
1.79837	11127050.55192905
1.80084	7668357.8403746905
1.8033	6641811.620311101
1.80576	6791147.082673243
1.80821	6881450.06262654
1.81067	6938674.647821634
1.81312	8158933.204146326
1.81557	8797539.401041918
1.81801	5625193.074373439
1.82046	4809314.589879806
1.8229	6420904.850102872
1.82533	5646861.403983474
1.82777	5027881.671923437
1.8302	5665969.404695059
1.83263	5366771.3959123315
1.83506	4854005.954865763
1.83749	5096652.360083916
1.83991	5697401.554430226
1.84233	6639962.298524212
1.84475	7826719.874380918
1.84716	6341632.922383948
1.84957	6449072.05231961
1.85198	7308244.257310061
1.85439	5825845.283081441
1.8568	3861630.862982628
1.8592	2649092.4466356444
1.8616	3185427.3718775054
1.864	3574222.7113113394
1.86639	3011263.4319341225
1.86878	2692657.0657360675
1.87118	4206752.129123328
1.87356	4689141.303702725
1.87595	4784976.682885711
1.87833	7766492.375975693
1.88071	10097702.212997861
1.88309	8542869.076016124
1.88547	7627133.512559104
1.88784	9124228.794898065
1.89021	9946430.210544037
1.89258	11415599.171910489
1.89494	13407503.671643924
1.89731	11688123.959646644
1.89967	8384541.314744043
1.90203	8252658.404134544
1.90439	8529694.559255706
1.90674	11003649.655534718
1.90909	11817669.532496333
1.91144	7081990.690377125
1.91379	6399623.077809142
1.91613	10218965.84126911
1.91848	11400618.033575399
1.92082	8541523.483986873
1.92315	7106381.090675921
1.92549	7866634.9312088275
1.92782	8016229.161679117
1.93015	6263573.927712782
1.93248	4794067.651263614
1.93481	4183679.287457901
1.93713	3219967.0236075968
1.93945	3022383.9691979224
1.94177	5602449.556627135
1.94409	7364312.474432493
1.94641	7156049.488685482
1.94872	7619763.40025575
1.95103	9706562.660913263
1.95334	9276150.332506627
1.95564	6597630.045131907
1.95795	5710119.318195084
1.96025	4705524.397300667
1.96255	4402743.271416141
1.96484	6663569.0391209135
1.96714	8235537.675990016
1.96943	7728123.822925905
1.97172	8613047.902212642
1.97401	9049661.127397653
1.97629	8770327.956223406
1.97858	9272998.957824742
1.98086	7978107.68116079
1.98314	6150643.519475277
1.98541	7503366.444809914
1.98769	10457252.70526431
1.98996	10069918.513688743
1.99223	8973953.250088837
1.9945	10470264.950726978
1.99677	11080955.51096034
1.99903	10189630.351273991
2.00129	9874355.780747816
2.00355	10599461.674194723
2.00581	11924467.676561136
2.00806	11983703.994821168
2.01031	12608906.689563604
2.01256	16263474.780841101
2.01481	17763686.71953463
2.01706	15000204.204006767
2.0193	14614155.414215587
2.02154	17311300.528672494
2.02378	17819675.088017948
2.02602	15287452.764576867
2.02825	14325848.391952338
2.03049	15920990.853919748
2.03272	18736388.592198268
2.03494	19488833.745401323
2.03717	18456864.61309195
2.03939	18412952.015202586
2.04162	20687356.911309153
2.04384	23188477.61367995
2.04605	23433368.158379525
2.04827	21829996.89447806
2.05048	21799607.47648514
2.05269	21464125.383610114
2.0549	19312157.64580061
2.05711	20957591.990279034
2.05931	22758288.640821435
2.06151	22392073.265673034
2.06371	22276252.213983327
2.06591	21775320.386134278
2.06811	22722932.088915713
2.0703	24829869.495355494
2.07249	26205683.99113823
2.07468	25972707.044893976
2.07686	24889523.64240692
2.07905	25119309.97014602
2.08123	26264708.54007709
2.08341	26768328.598914493
2.08559	26231498.81655066
2.08776	26401409.66920618
2.08994	27162370.682501394
2.09211	27124128.539984122
2.09428	27644489.16476334
2.09645	28500224.745857865
2.09861	27629222.25283657
2.10077	25864914.38038127
2.10293	25366760.819919836
2.10509	26203933.851895165
2.10725	26368781.90209617
2.1094	24264496.758851267
2.11155	21146736.070183832
2.1137	20516756.441436052
2.11585	21361526.628094725
2.11799	22370864.418763217
2.12013	23951010.67863061
2.12227	24562997.846080806
2.12441	24719549.59492258
2.12655	24481753.608701278
2.12868	23384203.670638133
2.13081	22929436.25896519
2.13294	22764215.406770118
2.13507	21078160.42127804
2.13719	19819393.69543288
2.13931	20869911.76212724
2.14143	21808639.3170927
2.14355	20916298.60005699
2.14567	19261797.09072475
2.14778	16978510.849986013
2.14989	15487629.137400026
2.152	15763867.091705173
2.1541	15910703.722723363
2.15621	15585042.352880388
2.15831	14842166.058223126
2.16041	13364327.678051447
2.16251	13032332.979799965
2.1646	13507808.216613827
2.1667	13605541.099794893
2.16879	14268974.215983922
2.17087	15192761.690956816
2.17296	14928555.969605623
2.17504	14426217.814030174
2.17713	14455650.564186065
2.1792	13684098.272962231
2.18128	11503605.24575745
2.18336	9085835.519225022
2.18543	8293037.25464225
2.1875	8386701.579425225
2.18957	8002869.512162967
2.19163	7886537.892251553
2.1937	8241007.701308751
2.19576	7406967.857486887
2.19782	5198670.82660426
2.19987	3139405.649298363
2.20193	2269016.511281662
2.20398	2171738.0992271
2.20603	2126359.0484241606
2.20808	2204070.422385879
2.21012	2392691.5713043795
2.21217	2614111.2483284655
2.21421	3134524.21932368
2.21625	3656484.1654908047
2.21828	3804294.657278644
2.22032	3972157.5712465667
2.22235	4153094.7793034646
2.22438	4022851.056401387
2.22641	3516170.2907709386
2.22843	3331368.38464157
2.23046	3172560.806144054
2.23248	2546326.672084784
2.2345	1962191.7528816173
2.23651	1704167.6908182623
2.23853	1715112.6449185552
2.24054	2006857.084958562
2.24255	2445786.6961655016
2.24456	2836248.7768059177
2.24657	3032612.091595186
2.24857	2983730.4238025746
2.25057	2692205.212519468
2.25257	2278075.082427385
2.25457	1895226.3716400845
2.25656	1686962.0134142402
2.25856	1615754.4274663348
2.26055	1565043.3332254249
2.26254	1363504.6885509167
2.26453	1227822.4644415556
2.26651	1305674.3417213375
2.2685	1406492.6694476474
2.27048	1435427.3704402337
2.27246	1513023.2272279172
2.27443	1520257.592078962
2.27641	1556792.6015860958
2.27838	1703499.598491275
2.28036	1707824.1214634923
2.28233	1538420.3066093586
2.28429	1357847.6514620695
2.28626	1203726.4464220551
2.28823	1071017.9784514443
2.29019	959701.4793995937
2.29215	868175.1351468505
2.29411	858531.898867551
2.29607	940834.2535102365
2.29802	1133923.73021425
2.29998	1416127.2344974377
2.30193	1766736.9620213183
2.30388	2064490.417336481
2.30583	2217574.1314031817
2.30778	2393733.383003573
2.30972	2699979.972902687
2.31167	2995748.904636907
2.31361	2719659.5524283913
2.31555	1945618.5380673432
2.31749	1195511.4267880213
2.31943	955326.0667387117
2.32137	873932.8162673046
2.32331	754589.1011481135
2.32524	633742.2786336155
2.32718	533988.2484966894
2.32911	487450.3482122746
2.33104	520178.17345654045
2.33297	619928.0526402489
2.3349	800364.1670895099
2.33683	1072167.6184084467
2.33876	1268984.2157062604
2.34068	1350057.9668002357
2.34261	1384203.4156508644
2.34453	1459459.8394616111
2.34646	1579127.8386403217
2.34838	1666337.2588517515
2.3503	1607611.4374873252
2.35223	1548899.889778287
2.35415	1458131.9131150579
2.35607	1297263.6044813239
2.35799	1352905.3413562826
2.35991	1637445.2419678178
2.36183	1935628.803842034
2.36375	2132238.575723616
2.36566	2281352.56646333
2.36758	2198491.7069947827
2.3695	1954041.6773401508
2.37142	1745079.6478967308
2.37334	1609048.989296995
2.37526	1368485.811532486
2.37718	1105292.054388108
2.3791	977156.9954384015
2.38101	944233.7077764845
2.38293	968581.7639233407
2.38485	1118347.1213201778
2.38677	1464889.5153956849
2.3887	1764478.6889642084
2.39062	1770454.2274308612
2.39254	1713632.3470840864
2.39446	1864163.507986565
2.39639	2038873.078812503
2.39831	2021949.4090847007
2.40024	2035414.0393630238
2.40216	2209318.6839607344
2.40409	2543741.0413536336
2.40602	2620228.90028771
2.40795	2474980.5063838596
2.40989	2537883.014665776
2.41182	2838565.0357612777
2.41376	2978496.5448276987
2.4157	3136711.8119933484
2.41764	3214459.7365105697
2.41958	3129470.835084154
2.42152	2905528.895328125
2.42347	2818851.9390315143
2.42542	2870669.5988360634
