#wavelength	surface_flux
0.6450077295303345	36715.782353752766
0.6472567915916443	58318.49507643341
0.6494921445846558	77199.11833585148
0.6517150402069092	90334.20284347664
0.6539263725280762	104795.97345034007
0.6561272740364075	121115.58292029757
0.6583186388015747	139099.38911590193
0.6605015397071838	158780.70112276287
0.6626768708229065	180864.1118903157
0.6648455858230591	205040.96240935166
0.6670085787773132	224908.24867516538
0.6691668033599854	223991.22353429423
0.6713210344314575	228329.5583673673
0.6734722256660461	284294.649074181
0.6756211519241333	353542.031558937
0.6777685880661011	398282.4734512879
0.6799154281616211	434785.7743109919
0.6820623278617859	469873.1642817349
0.6842101216316223	501996.818908817
0.6863595843315125	525866.3724212783
0.688511312007904	536169.8065538447
0.6906660795211792	535115.1594653286
0.6928245425224304	533686.1108174609
0.6949873566627502	540856.4013590384
0.6971551775932312	559058.2697268082
0.6993286609649658	588107.9567168873
0.7015084028244019	624325.2341590944
0.7036949396133423	661096.0418706409
0.7058889269828796	693653.2235030828
0.7080909013748169	722841.6035847515
0.710301399230957	752967.4002076625
0.712520956993103	782575.8149388118
0.7147500514984131	802860.1182936423
0.7169892191886902	810653.7752675568
0.7192389369010925	812648.1905676121
0.7214996814727783	810399.858047275
0.723771870136261	800784.1414982527
0.7260559797286987	785228.48922011
0.7283523678779602	765725.2881027496
0.7306615710258484	739644.367683412
0.7329838871955872	706517.3890042685
0.7353196740150452	672676.2865223534
0.7376693487167358	638834.6332246158
0.7400332689285278	598280.8457447216
0.7424117922782898	555159.4757736811
0.7448052167892456	516890.09155446035
0.7472138404846191	478095.8112619685
0.7496379613876343	432130.5731140411
0.7520779371261597	384600.07673187385
0.7545340061187744	338206.8446197685
0.7570064663887024	286505.86292351753
0.7594954967498779	224261.84533893943
0.7620013952255249	145079.13890356096
0.7645244002342224	67008.70274477874
0.7670646905899048	24912.659726793667
0.7696225643157959	22324.29481682583
0.7721980810165405	57075.15136433134
0.7747915983200073	141504.98987208403
0.7774031162261963	240356.85638006983
0.7800329327583313	325740.0559100298
0.7826811671257019	459031.70708826365
0.7853479981422424	635415.0788342392
0.7880334854125977	801895.727307609
0.7907378077507019	939916.5116131036
0.7934610247612	1011784.2532034671
0.7962033748626709	1171368.2307827608
0.7989648580551147	1515808.8943709529
0.801745593547821	1854952.124313609
0.8045456409454346	2131517.893313852
0.8073651194572449	2408104.3876563655
0.8102040886878967	2700223.241597166
0.8130625486373901	3015642.734936219
0.8159406185150146	3359287.8823389066
0.8188382983207703	3735646.1254167566
0.8217556476593018	4131579.982742804
0.8246926665306091	4560116.1847558
0.8276493549346924	5031344.241184449
0.8306257724761963	5510562.489391501
0.8336219191551208	5992631.88692365
0.8366377949714661	6516292.740683655
0.8396733403205872	7101288.558476888
0.8427285552024841	7723207.433383824
0.8458034992218018	8341029.390761203
0.8488980531692505	8750711.890333993
0.8520121574401855	9066944.658604102
0.8551458716392517	10048050.860273195
0.8582990765571594	11392071.930397207
0.8614717125892639	12429430.264991753
0.8646637797355652	13362913.881862324
0.8678751587867737	14287404.148876408
0.8711057901382446	15227593.984680943
0.8743556141853333	16301362.223377608
0.87762451171875	17654580.578485362
0.8809124231338501	19399238.729916044
0.8842192888259888	21169995.754977375
0.8875449895858765	22377204.140691973
0.8908893465995789	22636240.5328775
0.894252359867096	22698885.41314836
0.8976338505744934	24660694.81410526
0.9010337591171265	27905519.250821985
0.9044519662857056	30584922.36262164
0.9078882932662964	32795549.24524323
0.9113426208496094	34951038.66662831
0.914814829826355	37138122.89211882
0.9183048605918884	39541755.21660723
0.9218124747276306	42521711.18276498
0.925337553024292	43960599.38950446
0.9288799166679382	42274703.26103162
0.9324395060539246	42341596.39405834
0.9360161423683167	47135505.145054236
0.9396095871925354	53459178.2744343
0.943219780921936	57955065.302729376
0.9468464851379395	60185363.604375824
0.9504896402359009	62564746.227749065
0.9541489481925964	65399887.657133944
0.9578243494033813	67537495.9642199
0.9615156054496765	70083191.08407916
0.9652225375175476	74415205.90574288
0.9689450263977051	79311902.71140498
0.9726828336715698	83477487.63657433
0.9764357805252075	88315694.34479001
0.9802037477493286	94883055.62183584
0.983986496925354	101407864.72996871
0.9877838492393494	99112489.70640424
0.9915955662727356	85176069.31350522
0.9954215884208679	77647640.55298877
0.9992615580558777	82079609.3065572
1.0031154155731201	87836929.11387698
1.0069829225540161	93218700.36251158
1.0108637809753418	98739327.84414661
1.0147579908370972	103067046.42171524
1.018665075302124	107375986.94311771
1.022585153579712	111812890.03311154
1.0265177488327026	112809239.65492558
1.0304628610610962	115127092.16473714
1.0344202518463135	123358190.14905263
1.0383895635604858	132292341.10827097
1.0423706769943237	138412022.8409925
1.0463634729385376	141959528.6814331
1.0503677129745483	143307902.66121125
1.0543830394744873	144681088.60636032
1.058409333229065	148144450.42747134
1.0624464750289917	153368399.14333606
1.0664942264556885	158640406.8801302
1.0705522298812866	164455331.9056991
1.0746204853057861	172535788.4976264
1.0786986351013184	180904312.9873486
1.0827864408493042	187120883.51039305
1.086883783340454	188993446.7797024
1.0909905433654785	184032571.51135102
1.0951062440872192	172447377.80159974
1.0992310047149658	159561765.40885973
1.10336434841156	148406757.23748052
1.1075061559677124	136434759.30271736
1.1116561889648438	124038259.89437237
1.115814208984375	115438903.58640043
1.1199802160263062	114943976.95002112
1.124153733253479	123173263.78024833
1.1283347606658936	127452846.01615536
1.1325229406356812	115337924.14276007
1.1367181539535522	104618066.03377803
1.1409201622009277	108853180.19188748
1.145128846168518	118624596.95076603
1.1493438482284546	125770123.87406461
1.1535650491714478	123202688.23982324
1.1577922105789185	119010281.28582515
1.1620250940322876	118532861.67515545
1.1662636995315552	110530291.70854428
1.170507550239563	97485294.46711789
1.174756646156311	89914155.96704842
1.1790107488632202	100766726.72287963
1.1832695007324219	134008663.79690738
1.1875330209732056	165900531.86019227
1.191800832748413	181313075.3071924
1.1960728168487549	182564019.18451545
1.2003488540649414	182889534.80985638
1.2046287059783936	195481470.14788246
1.2089121341705322	210643203.3900213
1.2131990194320679	225194400.53804007
1.2174891233444214	240032326.64728576
1.2217823266983032	249620182.98854187
1.2260783910751343	261978178.9137196
1.230377197265625	272059459.9738866
1.2346785068511963	269991307.1118889
1.238982081413269	255624544.4811611
1.2432878017425537	239125886.747969
1.2475954294204712	235438394.75372285
1.2519049644470215	235514608.50761518
1.256216049194336	252360694.70440167
1.2605286836624146	282434287.32040375
1.2648425102233887	298271370.0459356
1.2691574096679688	306328742.150415
1.2734732627868652	308604016.0095629
1.2777899503707886	306323359.8713267
1.2821072340011597	302150845.47763497
1.2864248752593994	290038865.9022969
1.2907428741455078	276567405.6033545
1.2950609922409058	271793216.4798052
1.2993791103363037	272237460.49230975
1.303696870803833	272415960.77821743
1.3080145120620728	270246971.441057
1.3123314380645752	265332189.17852536
1.3166478872299194	254974380.6734851
1.3209635019302368	234967714.51988882
1.3252781629562378	202852983.3735148
1.3295916318893433	153277374.75754988
1.3339040279388428	93495254.67939793
1.3382149934768677	51427520.41952152
1.3425244092941284	34561683.00023005
1.3468321561813354	26834594.292347703
1.3511382341384888	20996420.48575161
1.3554422855377197	17216472.127964832
1.3597444295883179	16054014.005117306
1.3640443086624146	17362978.240121912
1.3683418035507202	18639626.75198445
1.3726370334625244	19316205.623482823
1.3769296407699585	21020704.816863555
1.381219506263733	22023259.315479346
1.3855066299438477	21698275.066952534
1.3897908926010132	21105384.9733861
1.3940720558166504	19803356.446171455
1.3983501195907593	18772465.068277087
1.4026249647140503	19010530.096376434
1.4068963527679443	18874826.541082215
1.4111642837524414	18532098.141391926
1.4154287576675415	18805293.502270184
1.419689416885376	18438832.79903037
1.4239463806152344	18306921.70395318
1.4281994104385376	19967594.36998672
1.4324485063552856	22335446.49610489
1.436693549156189	24156882.832669087
1.440934419631958	25366686.005996794
1.4451709985733032	27375641.197994202
1.449403166770935	31995467.803721424
1.453631043434143	37578707.22649468
1.4578542709350586	41204985.294286795
1.4620729684829712	42392332.273768276
1.4662868976593018	42452621.005362466
1.4704961776733398	42882189.769475505
1.4747005701065063	45596510.763665974
1.4788999557495117	49400529.59489596
1.4830944538116455	51626138.183638275
1.4872838258743286	53539743.383608446
1.491468071937561	56174756.67581131
1.4956470727920532	59785118.33713048
1.4998208284378052	63566248.223077945
1.5039892196655273	67088474.426749244
1.5081522464752197	71990545.13500813
1.5123097896575928	77570308.21687144
1.5164618492126465	82228117.01736535
1.5206083059310913	87133808.09889558
1.5247491598129272	92387720.41227272
1.5288842916488647	97053937.13160652
1.5330137014389038	102513065.39839107
1.5371372699737549	109254839.60035838
1.541254997253418	115811066.79849854
1.545366883277893	122049899.09652765
1.5494728088378906	128339628.99932352
1.5535727739334106	132501557.85766229
1.5576666593551636	134370014.36660692
1.561754584312439	137279976.50623736
1.5658363103866577	142876506.77459186
1.5699119567871094	149206785.11468
1.5739814043045044	153135784.42798215
1.5780447721481323	154228311.07893074
1.582101821899414	155147839.79019162
1.5861525535583496	156725466.0140813
1.5901970863342285	156095763.82312393
1.5942351818084717	152676314.21081445
1.5982669591903687	146457258.03684342
1.6022924184799194	136519609.60669467
1.606311559677124	124687999.75215453
1.6103241443634033	112669871.90512809
1.6143304109573364	101162998.22318386
1.6183301210403442	91091024.97306505
1.6223233938217163	82736326.1098246
1.6263102293014526	76054576.45087653
1.6302905082702637	73564530.5658269
1.634264349937439	76380060.52684917
1.638231635093689	81249494.32684436
1.6421923637390137	85352551.77908172
1.646146535873413	88341360.62116547
1.6500942707061768	91056982.04238725
1.6540353298187256	91808005.32278785
1.6579699516296387	89510886.63951884
1.661897897720337	83711597.05858621
1.6658192873001099	70645684.55832112
1.6697341203689575	57092560.57742
1.6736423969268799	54891879.206478156
1.677544116973877	62229467.553593
1.6814392805099487	69235358.06311351
1.6853278875350952	70359127.06851134
1.6892099380493164	67288359.97180901
1.6930854320526123	63004539.836149424
1.696954369544983	59865892.643276714
1.7008168697357178	59711106.396502815
1.7046726942062378	62738195.96481495
1.708522081375122	66045863.53212573
1.712364912033081	65903190.406815924
1.7162011861801147	64069964.9153245
1.7200311422348022	63872567.04757985
1.723854422569275	63498786.8397546
1.7276713848114014	60511496.38867762
1.731481909751892	56407041.17328265
1.7352858781814575	53128333.78392347
1.7390835285186768	51082695.194936156
1.7428747415542603	50347666.10200161
1.7466596364974976	49912647.489904724
1.7504380941390991	49217890.64403928
1.7542102336883545	47902454.46669006
1.7579760551452637	45745045.77650907
1.7617355585098267	43866845.6178236
1.7654887437820435	41695648.22923269
1.7692357301712036	38031104.97967788
1.7729763984680176	35375648.31646902
1.776710867881775	34863379.66588104
1.7804391384124756	34183358.4993796
1.7841613292694092	32059904.164185047
1.7878772020339966	29624249.6391815
1.7915871143341064	28333233.95440982
1.7952908277511597	27544642.163843367
1.7989884614944458	26687683.17458044
1.8026801347732544	25787039.616332456
1.806365728378296	25072080.575932242
1.8100452423095703	26061219.075223517
1.8137187957763672	27467557.17152587
1.817386507987976	26113434.78118937
1.8210482597351074	25322309.717919674
1.8247040510177612	26163282.335054934
1.828354001045227	25432190.743724868
1.8319982290267944	24202989.591683988
1.8356364965438843	23188255.85522128
1.8392690420150757	22479170.642261196
1.8428958654403687	21794128.635284446
1.8465168476104736	21332231.06391025
1.8501322269439697	21588813.947529994
1.8537418842315674	20880514.95283306
1.8573459386825562	19023084.407102924
1.860944390296936	17274071.130357593
1.864537239074707	16942042.286222827
1.8681244850158691	18218098.709724195
1.871706247329712	19870195.802636568
1.8752825260162354	21461042.15770392
1.8788533210754395	24083078.448679052
1.8824186325073242	27062112.386285476
1.8859784603118896	28265347.599136107
1.8895330429077148	28518454.784506522
1.8930821418762207	29918450.66991333
1.8966259956359863	31343659.525210325
1.9001644849777222	31037271.92091902
1.9036977291107178	30548225.866140388
1.9072256088256836	30721649.44096164
1.9107483625411987	31755081.496169932
1.9142658710479736	33521685.504899442
1.9177782535552979	33162360.45156335
1.9212853908538818	30353238.95313831
1.9247875213623047	28793195.949401096
1.9282845258712769	28427613.504918996
1.9317764043807983	27300058.33015972
1.9352631568908691	25624740.950659517
1.9387450218200684	23285275.068291143
1.942221760749817	23124467.497969113
1.9456936120986938	25724754.464604985
1.9491604566574097	27735835.88410863
1.952622413635254	27486575.45567371
1.956079363822937	26368447.149538826
1.959531545639038	26918264.377611607
1.962978720664978	27759165.86721058
1.966421127319336	28324973.74967018
1.9698586463928223	29196047.478006463
1.9732913970947266	29646918.55600829
1.9767193794250488	30610673.548521936
1.9801424741744995	31712247.197058793
1.9835609197616577	32669079.75798679
1.9869745969772339	33188876.690537117
1.990383505821228	32727206.067731183
1.9937876462936401	33893576.33838643
1.9971871376037598	35874986.29795928
2.000581979751587	36946606.61741842
2.003972291946411	37815017.58748416
2.007357597351074	38255692.78011527
2.0107386112213135	39097250.73184235
2.0141148567199707	40286479.3936249
2.017486572265625	40983712.61563131
2.0208535194396973	42964732.99404286
2.0242159366607666	45095193.08925214
2.027573823928833	45229774.29030687
2.0309269428253174	45524639.594402455
2.034275770187378	46987576.90634821
2.0376198291778564	48698296.30144078
2.040959596633911	50090106.65223755
2.044294595718384	51253959.434412405
2.0476250648498535	52153496.13034205
2.0509510040283203	52538108.2932568
2.054272413253784	53235951.24258055
2.057589530944824	54855145.31750567
2.0609018802642822	55913871.218310714
2.0642096996307373	55958448.63706445
2.0675129890441895	56672803.01360901
2.0708119869232178	57593394.39150874
2.074106216430664	57601459.434005305
2.0773961544036865	57500345.377864875
2.080681324005127	57761335.42410371
2.0839622020721436	57984176.78803947
2.087238311767578	58273040.48672753
2.090510129928589	58628227.51639814
2.0937774181365967	58455316.37920694
2.0970399379730225	57920352.974160515
2.1002981662750244	57506402.97490822
2.1035518646240234	57157194.44694393
2.1068007946014404	56697529.83475668
2.1100454330444336	56160432.703708515
2.1132853031158447	55530728.745639525
2.116520881652832	54862801.88917417
2.1197516918182373	54356946.243295565
2.1229779720306396	53800561.27646222
2.12619948387146	52839644.87789246
2.1294167041778564	51676514.17417711
2.132629156112671	50759272.662662454
2.1358368396759033	49849745.9124517
2.139039993286133	48657730.27599827
2.1422386169433594	47536644.290010296
2.145432472229004	46486928.21032887
2.1486217975616455	45307582.22908088
2.151806354522705	44098646.25623689
2.1549863815307617	42820532.8733319
2.1581614017486572	41339648.966169134
2.16133189201355	39717157.79019827
2.1644976139068604	38182256.499363445
2.167658567428589	36891181.809195645
2.1708147525787354	35756747.50236334
2.173966407775879	34568255.474857144
2.1771130561828613	33284568.65932991
2.1802549362182617	31849243.918328412
2.183391809463501	29943733.68115447
2.1865241527557373	27551442.82209402
2.1896514892578125	24918430.380452435
2.1927738189697266	21968860.573490016
2.1958916187286377	18503198.89785844
2.1990041732788086	14811525.573487267
2.2021119594573975	11916737.390125604
2.2052149772644043	10635413.133056665
2.208312749862671	10878670.193892593
2.2114057540893555	11942331.833019916
2.214493751525879	13110456.397066357
2.217576742172241	14034139.91558116
2.2206547260284424	14545303.567520035
2.2237277030944824	14516108.37282877
2.2267956733703613	13891483.809724923
2.2298583984375	12980329.124992097
2.2329163551330566	12222154.881810647
2.235969066619873	11566935.117191322
2.2390167713165283	10853104.075580839
2.2420592308044434	10227590.87243999
2.2450966835021973	9781350.423525648
2.248128890991211	9424718.088141533
2.2511560916900635	9034878.821451994
2.254178285598755	8649818.592979226
2.257194995880127	8476307.066043178
2.260206699371338	8501061.321487581
2.2632133960723877	8504034.277582368
2.266214609146118	8367007.5712648425
2.2692108154296875	8126264.957422138
2.2722020149230957	7918041.835717808
2.2751877307891846	7785904.4315262865
2.278168201446533	7642747.000028324
2.2811436653137207	7404183.792999526
2.284113883972168	7043421.997742357
2.287078857421875	6620493.81025371
2.290038824081421	6257354.477255967
2.2929933071136475	6100254.308750378
2.295942783355713	6232148.288605989
2.298887014389038	6672258.792134534
2.301826238632202	7470108.641545707
2.304760217666626	8641300.071091533
2.3076889514923096	10008335.332171988
2.310612440109253	11017775.017149633
2.3135311603546143	10637413.38598593
2.3164443969726562	8798997.563706271
2.319352865219116	7024157.212870109
2.322256088256836	6139257.302247569
2.3251543045043945	5766940.565406134
2.328047275543213	5531886.776322565
2.330935478210449	5259519.42778409
2.3338186740875244	5007882.1671746
2.3366971015930176	4931155.43266293
2.3395702838897705	5000868.382354165
2.3424389362335205	5113797.518202183
2.3453025817871094	5245177.981832087
2.348161458969116	5418470.088270897
2.351015567779541	5701137.024963886
2.353865146636963	6121160.644369313
2.3567099571228027	6580175.456071974
2.3595502376556396	7016461.225573769
2.3623859882354736	7508814.989802455
2.3652172088623047	7919358.460622237
2.368043899536133	7616027.928795844
2.370866537094116	6437369.237790299
2.3736846446990967	5306896.736666044
2.3764986991882324	4876716.575927739
2.3793084621429443	4973131.121742529
2.3821144104003906	5369729.223547249
2.384916305541992	5975526.6445478825
2.387714147567749	6695945.192937437
2.3905084133148193	7364802.73364508
2.393299102783203	7883520.368410618
2.3960859775543213	8325844.4939690335
2.398869514465332	8747736.254000321
2.4016497135162354	9085794.691024091
2.4044265747070312	9300402.977845019
2.407200336456299	9507738.382857058
2.409970998764038	9791261.867807759
2.4127390384674072	9948113.390793
2.415503978729248	9764213.099535543
2.418266534805298	9483756.620196234
2.4210267066955566	9490041.518937524
2.4237842559814453	9729136.436596261
2.426539897918701	9939835.331868552
2.429293394088745	9989177.227147618
2.4320452213287354	9792142.75904416
2.4347951412200928	9490246.68485234
2.4375438690185547	9522727.24057412
2.440291166305542	9986991.413705816
2.443037271499634	10457081.794477304
2.445782423019409	10658012.632138327
2.4485268592834473	10649943.400612561
2.451270818710327	10536705.592159415
2.454014539718628	10515724.180656618
2.4567582607269287	10789725.171775557
2.4595019817352295	11226084.306174794
2.4622461795806885	11541134.547358166
2.4649908542633057	11648478.857466873
2.4677364826202393	11547217.970200228
2.4704833030700684	11314025.569781518
2.473231554031372	11204356.701939827
2.4759814739227295	11367529.635738514
2.4787333011627197	11738863.788296947
2.481487512588501	12207425.764400672
