#wavelength	surface_flux
0.6450077295303345	1177.041076618814
0.6472567915916443	1790.7956072762017
0.6494921445846558	2196.462849009087
0.6517150402069092	2348.6200384040862
0.6539263725280762	2492.6459341832924
0.6561272740364075	2644.1167646215954
0.6583186388015747	2804.6533354237936
0.6605015397071838	2974.635994338254
0.6626768708229065	3138.986150974686
0.6648455858230591	3274.2636840082437
0.6670085787773132	3398.9445110119386
0.6691668033599854	3544.002597078146
0.6713210344314575	3721.657044704143
0.6734722256660461	4020.499001265852
0.6756211519241333	4426.590313686125
0.6777685880661011	4786.629805947287
0.6799154281616211	5091.778733459006
0.6820623278617859	5405.434554345958
0.6842101216316223	5742.021931751638
0.6863595843315125	6104.980138527981
0.688511312007904	6482.342020237069
0.6906660795211792	6843.361263997751
0.6928245425224304	7206.968692346628
0.6949873566627502	7642.485460405876
0.6971551775932312	8146.988435941726
0.6993286609649658	8669.836185036163
0.7015084028244019	9194.99684270617
0.7036949396133423	9626.491302286608
0.7058889269828796	9927.137490298801
0.7080909013748169	10262.768904718756
0.710301399230957	10717.834929372802
0.712520956993103	11224.35536232865
0.7147500514984131	12002.39247307885
0.7169892191886902	13082.387745015707
0.7192389369010925	14235.95253019877
0.7214996814727783	15417.451815019564
0.723771870136261	16443.508412742176
0.7260559797286987	17347.24016496285
0.7283523678779602	18217.112819099075
0.7306615710258484	18993.11109048966
0.7329838871955872	19787.715476183756
0.7353196740150452	20564.460845068927
0.7376693487167358	21189.323715816638
0.7400332689285278	21673.970924821606
0.7424117922782898	22013.608755105237
0.7448052167892456	22198.83505709997
0.7472138404846191	22242.844270284135
0.7496379613876343	22152.635602525977
0.7520779371261597	21976.742138934547
0.7545340061187744	21796.42186227159
0.7570064663887024	21668.821327520378
0.7594954967498779	21626.385250057632
0.7620013952255249	21443.435646813883
0.7645244002342224	20325.16091227783
0.7670646905899048	19093.393647154553
0.7696225643157959	20031.719025515136
0.7721980810165405	23158.466290440196
0.7747915983200073	26555.757098782393
0.7774031162261963	28777.32046386327
0.7800329327583313	30534.623563049976
0.7826811671257019	34089.848216822225
0.7853479981422424	38989.09106340718
0.7880334854125977	43679.86093207065
0.7907378077507019	47506.14309545393
0.7934610247612	49296.5307500704
0.7962033748626709	53387.58971791527
0.7989648580551147	62691.52990625672
0.801745593547821	71837.8126557477
0.8045456409454346	78821.49016106281
0.8073651194572449	85012.31758598986
0.8102040886878967	90178.80858962494
0.8130625486373901	95060.6792520471
0.8159406185150146	101631.11982570868
0.8188382983207703	110002.05658095333
0.8217556476593018	117883.34165713842
0.8246926665306091	125705.96732524589
0.8276493549346924	133879.37130643567
0.8306257724761963	140559.3859791306
0.8336219191551208	146357.81415610752
0.8366377949714661	152671.6591903793
0.8396733403205872	159581.419319117
0.8427285552024841	166204.96757851122
0.8458034992218018	173921.9332680728
0.8488980531692505	187517.5416440952
0.8520121574401855	209816.73208573816
0.8551458716392517	237090.46704370427
0.8582990765571594	259859.62025305055
0.8614717125892639	276204.8214640142
0.8646637797355652	291935.5631791705
0.8678751587867737	309171.28786537866
0.8711057901382446	328022.9734597708
0.8743556141853333	348696.8549683269
0.87762451171875	374296.8672340059
0.8809124231338501	409618.1461413854
0.8842192888259888	443349.22179503966
0.8875449895858765	452288.9948361691
0.8908893465995789	437357.4413923601
0.894252359867096	433573.51725352195
0.8976338505744934	464786.486822076
0.9010337591171265	537290.0916466201
0.9044519662857056	640643.0783887107
0.9078882932662964	725846.0195794035
0.9113426208496094	784198.0200620445
0.914814829826355	851553.7996431952
0.9183048605918884	947321.1174441216
0.9218124747276306	1038226.0285781643
0.925337553024292	974224.3945537935
0.9288799166679382	727802.7920371874
0.9324395060539246	585664.8461438362
0.9360161423683167	720205.5883823314
0.9396095871925354	972538.9012064551
0.943219780921936	1086920.8809350734
0.9468464851379395	1068102.7030326417
0.9504896402359009	1111885.1650236256
0.9541489481925964	1197516.9409510675
0.9578243494033813	1276479.276788043
0.9615156054496765	1429779.315496625
0.9652225375175476	1717272.9564895292
0.9689450263977051	2067436.5775235142
0.9726828336715698	2359560.5726472787
0.9764357805252075	2612222.531052593
0.9802037477493286	2891462.0769286756
0.983986496925354	3221648.985707808
0.9877838492393494	3600738.009547282
0.9915955662727356	3967546.253190524
0.9954215884208679	4294029.033206016
0.9992615580558777	4593849.095178997
1.0031154155731201	4832993.082334689
1.0069829225540161	5060434.145145925
1.0108637809753418	5320603.767363311
1.0147579908370972	5524379.373119652
1.018665075302124	5715491.544842782
1.022585153579712	6047901.015965922
1.0265177488327026	6500963.015786786
1.0304628610610962	6888326.453240082
1.0344202518463135	7192609.317042229
1.0383895635604858	7629495.155169198
1.0423706769943237	8186266.335131586
1.0463634729385376	8696980.903353542
1.0503677129745483	9158009.100483779
1.0543830394744873	9606344.116280597
1.058409333229065	10026028.75466305
1.0624464750289917	10392081.658668248
1.0664942264556885	10702953.504061127
1.0705522298812866	10978274.895027054
1.0746204853057861	11246668.767722748
1.0786986351013184	11500892.973470312
1.0827864408493042	11645876.898688108
1.086883783340454	11434259.137229636
1.0909905433654785	10558825.932722954
1.0951062440872192	9052578.932029763
1.0992310047149658	7292733.943074708
1.10336434841156	5526909.835001535
1.1075061559677124	3919944.066837831
1.1116561889648438	2634359.468965904
1.115814208984375	1851858.5435763346
1.1199802160263062	1693403.9111961809
1.124153733253479	2058460.9665030066
1.1283347606658936	2424985.1999784075
1.1325229406356812	2258497.553679126
1.1367181539535522	2321759.3771649194
1.1409201622009277	2833463.4689985905
1.145128846168518	2820722.096634328
1.1493438482284546	2379968.0567056965
1.1535650491714478	1841027.1339182176
1.1577922105789185	1469914.0938628048
1.1620250940322876	1644643.5869383516
1.1662636995315552	2091830.3230422963
1.170507550239563	2169335.2390178563
1.174756646156311	2119365.411579692
1.1790107488632202	2877671.2153157378
1.1832695007324219	4138294.581273116
1.1875330209732056	5215393.853724433
1.191800832748413	6213694.343515509
1.1960728168487549	7342077.721841387
1.2003488540649414	8683233.453106422
1.2046287059783936	10147753.244289484
1.2089121341705322	11562457.115187453
1.2131990194320679	12967044.595102847
1.2174891233444214	14359352.90897479
1.2217823266983032	15720187.114257785
1.2260783910751343	17328217.524428718
1.230377197265625	19026274.638416074
1.2346785068511963	20483932.645377375
1.238982081413269	22032400.60692893
1.2432878017425537	23826026.450196873
1.2475954294204712	25532612.64110333
1.2519049644470215	26999242.476495095
1.256216049194336	28362072.021711532
1.2605286836624146	29621295.7869729
1.2648425102233887	30477781.75827593
1.2691574096679688	30527033.521999452
1.2734732627868652	29566652.279485695
1.2777899503707886	27763371.719528757
1.2821072340011597	25443244.61909059
1.2864248752593994	23185432.80543311
1.2907428741455078	21448928.310343534
1.2950609922409058	20190466.702319033
1.2993791103363037	19051287.80497915
1.303696870803833	17882333.2623362
1.3080145120620728	16921066.26318929
1.3123314380645752	15665903.108277533
1.3166478872299194	14099227.06392604
1.3209635019302368	12473577.283997651
1.3252781629562378	9956133.654159175
1.3295916318893433	6386317.821568495
1.3339040279388428	3027583.822635079
1.3382149934768677	1114684.5152024727
1.3425244092941284	424101.9953547753
1.3468321561813354	193044.11357159965
1.3511382341384888	96670.72588952763
1.3554422855377197	52206.31636026038
1.3597444295883179	40383.773488905725
1.3640443086624146	52590.401448619145
1.3683418035507202	68957.83185910057
1.3726370334625244	93582.18787720343
1.3769296407699585	128161.55969463107
1.381219506263733	122129.43734954599
1.3855066299438477	89362.73233409475
1.3897908926010132	81702.19745956642
1.3940720558166504	83797.01057367439
1.3983501195907593	89148.82143268941
1.4026249647140503	106687.86494848067
1.4068963527679443	115769.96814618497
1.4111642837524414	121887.61512273629
1.4154287576675415	133410.1614349606
1.419689416885376	134113.6724938112
1.4239463806152344	157335.32322585813
1.4281994104385376	231198.4799614841
1.4324485063552856	294719.63497118466
1.436693549156189	325400.83691651805
1.440934419631958	380291.56658659043
1.4451709985733032	510180.37393231003
1.449403166770935	719644.2177824987
1.453631043434143	941122.8614145657
1.4578542709350586	1105152.1947011154
1.4620729684829712	1103788.171148822
1.4662868976593018	941609.6731129279
1.4704961776733398	772565.6466161652
1.4747005701065063	733389.5563727976
1.4788999557495117	781855.7263313999
1.4830944538116455	803433.7192970024
1.4872838258743286	869594.8329729964
1.491468071937561	1038306.6970228631
1.4956470727920532	1270480.8615611787
1.4998208284378052	1530210.3513388676
1.5039892196655273	1695836.225368752
1.5081522464752197	1627480.2445694592
1.5123097896575928	1469248.1992889198
1.5164618492126465	1572915.298376309
1.5206083059310913	1997865.7918989381
1.5247491598129272	2463996.4876324255
1.5288842916488647	2881335.3527473705
1.5330137014389038	3317788.794552414
1.5371372699737549	3767377.5090346835
1.541254997253418	4232824.695625233
1.545366883277893	4756281.797970521
1.5494728088378906	5340353.755179171
1.5535727739334106	5960016.860694337
1.5576666593551636	6674605.751142222
1.561754584312439	7492683.531221652
1.5658363103866577	8367562.345195098
1.5699119567871094	9249401.049862398
1.5739814043045044	9970991.92923782
1.5780447721481323	10490364.369072834
1.582101821899414	10898340.426195329
1.5861525535583496	11117313.796602078
1.5901970863342285	11031135.081683835
1.5942351818084717	10642566.632621279
1.5982669591903687	9889176.677273968
1.6022924184799194	8679595.173161015
1.606311559677124	7183100.400126074
1.6103241443634033	5697484.781335018
1.6143304109573364	4366576.921622905
1.6183301210403442	3276118.5256865197
1.6223233938217163	2460241.917807298
1.6263102293014526	1875632.6613986997
1.6302905082702637	1608004.8518802954
1.634264349937439	1677018.3939462844
1.638231635093689	1895510.3478854278
1.6421923637390137	2082638.4437850795
1.646146535873413	2203293.0131987864
1.6500942707061768	2358235.9352475973
1.6540353298187256	2463997.730090895
1.6579699516296387	2502256.0331139998
1.661897897720337	2333044.588354497
1.6658192873001099	1578275.9565038406
1.6697341203689575	926745.089427789
1.6736423969268799	1080359.1045465562
1.677544116973877	1601018.232992735
1.6814392805099487	1908850.5178520076
1.6853278875350952	1834399.048082614
1.6892099380493164	1581270.2698128913
1.6930854320526123	1336566.909407724
1.696954369544983	1178090.907885576
1.7008168697357178	1140269.7296169812
1.7046726942062378	1286263.9413281414
1.708522081375122	1523413.9369681817
1.712364912033081	1608782.1204796187
1.7162011861801147	1685963.084656204
1.7200311422348022	1879871.8556685515
1.723854422569275	1888679.7978405233
1.7276713848114014	1674979.7932943858
1.731481909751892	1493516.0670654015
1.7352858781814575	1450213.2270473603
1.7390835285186768	1523211.1416092035
1.7428747415542603	1637757.4111673723
1.7466596364974976	1683917.170174132
1.7504380941390991	1645222.8385681112
1.7542102336883545	1552615.9489281683
1.7579760551452637	1417824.464882184
1.7617355585098267	1284288.3787999554
1.7654887437820435	1151577.251847065
1.7692357301712036	1005024.3633509044
1.7729763984680176	901859.0161221595
1.776710867881775	880222.0037181264
1.7804391384124756	874565.6861863476
1.7841613292694092	779431.302996158
1.7878772020339966	630882.4687928922
1.7915871143341064	535548.1519358755
1.7952908277511597	488270.27170672343
1.7989884614944458	454822.07773743646
1.8026801347732544	403466.1985787403
1.806365728378296	361735.18405524705
1.8100452423095703	380244.87074899214
1.8137187957763672	391486.8417725781
1.817386507987976	344314.61577685084
1.8210482597351074	359854.419018687
1.8247040510177612	394426.6617629949
1.828354001045227	319041.4814148999
1.8319982290267944	239593.79634715026
1.8356364965438843	204023.84377752815
1.8392690420150757	203856.59777070011
1.8428958654403687	251744.5645693484
1.8465168476104736	294664.1820701188
1.8501322269439697	305955.38280075777
1.8537418842315674	285069.69142297143
1.8573459386825562	247826.49330971987
1.860944390296936	208276.64507399732
1.864537239074707	171683.2216986937
1.8681244850158691	146327.3479982664
1.871706247329712	156404.48570828442
1.8752825260162354	251387.36462072068
1.8788533210754395	414578.2192253367
1.8824186325073242	514880.45337749063
1.8859784603118896	501261.2207912379
1.8895330429077148	483654.7323517066
1.8930821418762207	532417.375857327
1.8966259956359863	534917.6365030693
1.9001644849777222	420129.76756451966
1.9036977291107178	334520.07250496454
1.9072256088256836	312626.4740382234
1.9107483625411987	293717.21169743873
1.9142658710479736	289733.7741769891
1.9177782535552979	280388.4893751533
1.9212853908538818	239791.42423054326
1.9247875213623047	200608.1202955895
1.9282845258712769	179225.9195330909
1.9317764043807983	160440.9548120119
1.9352631568908691	147132.57838321765
1.9387450218200684	137049.60062506376
1.942221760749817	146996.85438534548
1.9456936120986938	176317.49342708857
1.9491604566574097	202560.78255467195
1.952622413635254	213679.99644606624
1.956079363822937	225942.52493740933
1.959531545639038	262924.313661861
1.962978720664978	305668.64176947915
1.966421127319336	336278.80559676635
1.9698586463928223	340878.7842713971
1.9732913970947266	343891.43678580795
1.9767193794250488	386075.6219725074
1.9801424741744995	424495.1774864183
1.9835609197616577	450171.18628630164
1.9869745969772339	482318.5684182949
1.990383505821228	508805.8640929773
1.9937876462936401	569446.7736897958
1.9971871376037598	647911.4406634603
2.000581979751587	685135.8533283405
2.003972291946411	688723.9899202394
2.007357597351074	702863.2132916613
2.0107386112213135	741317.3202005273
2.0141148567199707	745486.5131367613
2.017486572265625	702685.7421227654
2.0208535194396973	698162.6301753434
2.0242159366607666	742074.6356840098
2.027573823928833	785837.087585208
2.0309269428253174	834753.7502068673
2.034275770187378	886199.2299362948
2.0376198291778564	935680.1096956334
2.040959596633911	1003492.1600304818
2.044294595718384	1086758.914089767
2.0476250648498535	1159500.9622813885
2.0509510040283203	1218350.5833315041
2.054272413253784	1276866.9869218897
2.057589530944824	1339425.1763523442
2.0609018802642822	1401306.6969162242
2.0642096996307373	1457796.5039105345
2.0675129890441895	1506959.1024007935
2.0708119869232178	1549731.590370857
2.074106216430664	1585678.3380905373
2.0773961544036865	1612724.3525414641
2.080681324005127	1633732.344035432
2.0839622020721436	1656015.8105308872
2.087238311767578	1679709.2706801025
2.090510129928589	1693167.6260832269
2.0937774181365967	1690257.7244181563
2.0970399379730225	1680768.2663655202
2.1002981662750244	1671374.662750636
2.1035518646240234	1663524.8873727454
2.1068007946014404	1657948.8819429567
2.1100454330444336	1645488.8090765355
2.1132853031158447	1623817.788134438
2.116520881652832	1603725.4322957157
2.1197516918182373	1589013.0016824738
2.1229779720306396	1569944.488445165
2.12619948387146	1539898.0081800122
2.1294167041778564	1506266.4113271357
2.132629156112671	1476575.9588609457
2.1358368396759033	1442360.5176221638
2.139039993286133	1394368.5538897733
2.1422386169433594	1339878.2808437748
2.145432472229004	1288444.9849566275
2.1486217975616455	1242471.1964943642
2.151806354522705	1198790.0091625778
2.1549863815307617	1149120.5646219177
2.1581614017486572	1083774.4605163005
2.16133189201355	1004176.009181053
2.1644976139068604	928583.1204933344
2.167658567428589	870796.9398320037
2.1708147525787354	823309.7248693509
2.173966407775879	770491.4829414096
2.1771130561828613	717852.6318473177
2.1802549362182617	676623.868860283
2.183391809463501	631217.0941006198
2.1865241527557373	565011.3096857438
2.1896514892578125	479261.5217437348
2.1927738189697266	381495.93807069195
2.1958916187286377	277574.41053028975
2.1990041732788086	183434.76543216142
2.2021119594573975	135989.28981164252
2.2052149772644043	150712.61519050933
2.208312749862671	198210.8883861055
2.2114057540893555	233803.67135509118
2.214493751525879	242166.85374249972
2.217576742172241	244211.11758511898
2.2206547260284424	246527.2105282541
2.2237277030944824	236485.65925542513
2.2267956733703613	210336.19664151483
2.2298583984375	182228.3878911731
2.2329163551330566	167590.35033354518
2.235969066619873	155683.32238208
2.2390167713165283	135678.6740021288
2.2420592308044434	119035.48423395891
2.2450966835021973	109935.9642803933
2.248128890991211	100923.1751712024
2.2511560916900635	90141.6482894211
2.254178285598755	80675.68065949356
2.257194995880127	76248.45260265475
2.260206699371338	79208.33080931951
2.2632133960723877	87624.61302826033
2.266214609146118	93034.9253147075
2.2692108154296875	90500.9476824568
2.2722020149230957	85911.18714166721
2.2751877307891846	86145.98034040784
2.278168201446533	92520.09948498663
2.2811436653137207	97743.92302562059
2.284113883972168	93719.72779103964
2.287078857421875	82192.33063241905
2.290038824081421	69245.42200905406
2.2929933071136475	60305.058446436444
2.295942783355713	59025.84466368888
2.298887014389038	67446.2060613074
2.301826238632202	87909.44052488037
2.304760217666626	123420.04544082117
2.3076889514923096	176487.44431579203
2.310612440109253	227210.75555611684
2.3135311603546143	215902.45240294738
2.3164443969726562	134730.47265109763
2.319352865219116	67970.72965818313
2.322256088256836	55856.604414767826
2.3251543045043945	65992.84378235784
2.328047275543213	73720.90314914614
2.330935478210449	72203.14803694723
2.3338186740875244	64449.866640991706
2.3366971015930176	57876.27785414962
2.3395702838897705	55446.234043593045
2.3424389362335205	56947.00911559657
2.3453025817871094	59681.361321354794
2.348161458969116	61884.379413606584
2.351015567779541	67133.27168301192
2.353865146636963	78601.82359833832
2.3567099571228027	94282.47745628415
2.3595502376556396	110868.56044854996
2.3623859882354736	124958.32088600479
2.3652172088623047	130177.61923411975
2.368043899536133	114420.34842826665
2.370866537094116	79869.9591707766
2.3736846446990967	58475.1934481773
2.3764986991882324	68081.45058107041
2.3793084621429443	91073.8944192478
2.3821144104003906	112240.56466794093
2.384916305541992	130727.78952992074
2.387714147567749	146240.11614816147
2.3905084133148193	154772.09535142165
2.393299102783203	156627.4426202932
2.3960859775543213	163940.30868345965
2.398869514465332	182724.4837806004
2.4016497135162354	197270.7804406864
2.4044265747070312	197911.4849693937
2.407200336456299	208120.35621173627
2.409970998764038	246560.34354691804
2.4127390384674072	278824.192098835
2.415503978729248	265512.2638922358
2.418266534805298	233259.87800037555
2.4210267066955566	229209.93515534516
2.4237842559814453	252245.0946045963
2.426539897918701	279348.23335690086
2.429293394088745	297397.867721323
2.4320452213287354	296112.3969978733
2.4347951412200928	285955.5112200173
2.4375438690185547	303266.3946816054
2.440291166305542	353653.6133266279
2.443037271499634	394028.0475126463
2.445782423019409	400445.8717487325
2.4485268592834473	395779.2586053637
2.451270818710327	402127.0213837775
2.454014539718628	420868.73375138955
2.4567582607269287	449299.5407092949
2.4595019817352295	479339.48557585775
2.4622461795806885	498687.2079457137
2.4649908542633057	503733.69278024253
2.4677364826202393	494696.3447563945
2.4704833030700684	476113.0177953934
2.473231554031372	462928.17035814124
2.4759814739227295	464840.0414995647
2.4787333011627197	482804.4825547526
