#wavelength	surface_flux
0.6450077295303345	1875.6683998813714
0.6472567915916443	2918.024922646241
0.6494921445846558	3736.893830030801
0.6517150402069092	4217.9995771874865
0.6539263725280762	4733.567543520863
0.6561272740364075	5319.632648221859
0.6583186388015747	5973.667073595766
0.6605015397071838	6692.40201265854
0.6626768708229065	7509.195831016107
0.6648455858230591	8436.738559594502
0.6670085787773132	9354.681796225967
0.6691668033599854	9910.149971142848
0.6713210344314575	10609.931280322131
0.6734722256660461	12540.092042536133
0.6756211519241333	14974.84221788567
0.6777685880661011	16938.21975715496
0.6799154281616211	18650.76779910391
0.6820623278617859	20335.423722779477
0.6842101216316223	22060.7050411698
0.6863595843315125	23695.172619498022
0.688511312007904	24870.872673480422
0.6906660795211792	25315.253502499338
0.6928245425224304	25523.88796351134
0.6949873566627502	26290.47318792514
0.6971551775932312	27671.622056692962
0.6993286609649658	29411.768928896316
0.7015084028244019	31437.00613427591
0.7036949396133423	33386.933494237936
0.7058889269828796	34909.783001274
0.7080909013748169	36211.32689915198
0.710301399230957	37632.06911630257
0.712520956993103	38952.61715688205
0.7147500514984131	39737.697168916755
0.7169892191886902	39971.72064786826
0.7192389369010925	40645.48237249246
0.7214996814727783	41855.192220636796
0.723771870136261	42250.02099921097
0.7260559797286987	41786.77992794824
0.7283523678779602	41077.48485838269
0.7306615710258484	40194.27047900531
0.7329838871955872	39305.260243284734
0.7353196740150452	38471.497095429375
0.7376693487167358	37560.12884474557
0.7400332689285278	36490.688178956865
0.7424117922782898	35388.64108903495
0.7448052167892456	34370.088602424315
0.7472138404846191	33212.12734776835
0.7496379613876343	31626.06239070966
0.7520779371261597	29832.041278169738
0.7545340061187744	28232.597537780275
0.7570064663887024	27091.619923488743
0.7594954967498779	26272.93900581871
0.7620013952255249	24575.201393314794
0.7645244002342224	21542.01677639084
0.7670646905899048	19343.746686263934
0.7696225643157959	20253.913188193328
0.7721980810165405	24127.117371203727
0.7747915983200073	29359.01169281271
0.7774031162261963	33780.762125904614
0.7800329327583313	37794.68253785808
0.7826811671257019	45248.154740059275
0.7853479981422424	55360.331161161244
0.7880334854125977	65333.951537002074
0.7907378077507019	74357.26041086474
0.7934610247612	80169.84408907438
0.7962033748626709	91628.79884676478
0.7989648580551147	114858.68220856885
0.801745593547821	139094.49203243057
0.8045456409454346	160101.82443909103
0.8073651194572449	180264.9217138581
0.8102040886878967	199244.73099304052
0.8130625486373901	220008.48664522186
0.8159406185150146	248544.71100084792
0.8188382983207703	283755.3913454285
0.8217556476593018	319067.58632645203
0.8246926665306091	358482.08948434045
0.8276493549346924	403200.4686400805
0.8306257724761963	445895.587912699
0.8336219191551208	487287.34552491887
0.8366377949714661	533116.3468584003
0.8396733403205872	588211.7022131929
0.8427285552024841	650591.2466548984
0.8458034992218018	717550.7654079816
0.8488980531692505	783202.7848182946
0.8520121574401855	861904.7819280607
0.8551458716392517	995544.6065948314
0.8582990765571594	1144550.973029649
0.8614717125892639	1259859.0398434745
0.8646637797355652	1365066.4472223967
0.8678751587867737	1472987.6231731568
0.8711057901382446	1587089.870942782
0.8743556141853333	1711467.1994175792
0.87762451171875	1858842.2185368126
0.8809124231338501	2037924.3907422542
0.8842192888259888	2140095.6182810776
0.8875449895858765	2012882.179363755
0.8908893465995789	1767115.4415526115
0.894252359867096	1702919.773401818
0.8976338505744934	1831246.7529770306
0.9010337591171265	2118397.0798311057
0.9044519662857056	2629578.26525315
0.9078882932662964	3081501.386095187
0.9113426208496094	3335373.8566425038
0.914814829826355	3577723.2609864846
0.9183048605918884	3957237.307417922
0.9218124747276306	4327218.779331299
0.925337553024292	4024050.204558378
0.9288799166679382	3061889.7585655535
0.9324395060539246	2519990.160460731
0.9360161423683167	2762856.920776593
0.9396095871925354	3346156.273386315
0.943219780921936	3830880.9500110634
0.9468464851379395	4010548.4432242755
0.9504896402359009	4104059.0180333774
0.9541489481925964	4231408.737116957
0.9578243494033813	4320056.651452781
0.9615156054496765	4563519.846786803
0.9652225375175476	5135272.825346076
0.9689450263977051	5784214.0226278985
0.9726828336715698	6266279.796076403
0.9764357805252075	6728441.962467171
0.9802037477493286	7277423.510337555
0.983986496925354	7935078.233463934
0.9877838492393494	8717102.211867139
0.9915955662727356	9346924.455655325
0.9954215884208679	9920646.820760747
0.9992615580558777	10765043.744247973
1.0031154155731201	11639938.2938945
1.0069829225540161	12581545.88538918
1.0108637809753418	13831229.317024732
1.0147579908370972	15046091.416170621
1.018665075302124	16266071.450323638
1.022585153579712	17706395.8539806
1.0265177488327026	19163816.701141298
1.0304628610610962	20685885.367404833
1.0344202518463135	22475405.725275956
1.0383895635604858	24526159.199592337
1.0423706769943237	26464143.54593294
1.0463634729385376	28021754.062325455
1.0503677129745483	29366059.833872847
1.0543830394744873	30675668.087541256
1.058409333229065	31923187.2472971
1.0624464750289917	33063248.360043645
1.0664942264556885	34014354.18667278
1.0705522298812866	34738097.94153846
1.0746204853057861	35273939.0729712
1.0786986351013184	35517774.615133315
1.0827864408493042	34871132.46900536
1.086883783340454	31919012.21552837
1.0909905433654785	26086313.723641474
1.0951062440872192	19585762.14249064
1.0992310047149658	14991931.405389063
1.10336434841156	12022302.195644515
1.1075061559677124	9444338.284159448
1.1116561889648438	6978383.051032948
1.115814208984375	5018053.440866895
1.1199802160263062	4118473.196878108
1.124153733253479	4239422.87780989
1.1283347606658936	4517675.015014213
1.1325229406356812	4025537.974371516
1.1367181539535522	3542589.1820761627
1.1409201622009277	3768014.41348514
1.145128846168518	3733416.974726923
1.1493438482284546	3049583.784282878
1.1535650491714478	2083335.112031632
1.1577922105789185	1524434.9457802288
1.1620250940322876	1842804.3988213253
1.1662636995315552	2468984.021442758
1.170507550239563	2343224.7793769822
1.174756646156311	1823001.8040550777
1.1790107488632202	2438729.889966347
1.1832695007324219	3981783.7893751035
1.1875330209732056	5429345.601495791
1.191800832748413	6891986.694936316
1.1960728168487549	8790295.54001901
1.2003488540649414	11327860.030181693
1.2046287059783936	14505601.04644355
1.2089121341705322	18058072.34909671
1.2131990194320679	21962836.05753443
1.2174891233444214	26087696.060156297
1.2217823266983032	30323289.606491394
1.2260783910751343	35163769.10637254
1.230377197265625	39736928.694809824
1.2346785068511963	43127578.76832979
1.238982081413269	45743768.36114284
1.2432878017425537	48284638.66592662
1.2475954294204712	51141159.572530605
1.2519049644470215	53148959.86013089
1.256216049194336	56925287.05624599
1.2605286836624146	61845288.505224414
1.2648425102233887	63347733.84108768
1.2691574096679688	62307741.72135627
1.2734732627868652	60107577.63691382
1.2777899503707886	56823350.59004826
1.2821072340011597	52278849.73396998
1.2864248752593994	46945094.300377265
1.2907428741455078	42020279.73336954
1.2950609922409058	38085918.94358503
1.2993791103363037	34532000.87298674
1.303696870803833	30819890.85247587
1.3080145120620728	27322102.990407757
1.3123314380645752	23791668.550623823
1.3166478872299194	20163773.423671853
1.3209635019302368	16869981.703876708
1.3252781629562378	13116600.304105412
1.3295916318893433	8328052.077818936
1.3339040279388428	4124203.685807463
1.3382149934768677	2069437.138758074
1.3425244092941284	1321754.2487393492
1.3468321561813354	842756.1914823108
1.3511382341384888	516063.8891636519
1.3554422855377197	326228.51370748674
1.3597444295883179	235648.4377611716
1.3640443086624146	257438.53574462395
1.3683418035507202	304725.39872104797
1.3726370334625244	298885.839576478
1.3769296407699585	293440.2372463392
1.381219506263733	281332.2994075926
1.3855066299438477	262964.45143386
1.3897908926010132	266298.05126728344
1.3940720558166504	254842.57518138664
1.3983501195907593	243427.54782931664
1.4026249647140503	269043.673323588
1.4068963527679443	303488.89319641015
1.4111642837524414	349135.927006288
1.4154287576675415	394115.22439355013
1.419689416885376	400691.712403279
1.4239463806152344	435410.8712199877
1.4281994104385376	558166.1861272596
1.4324485063552856	701293.0583444381
1.436693549156189	811177.5747597644
1.440934419631958	908180.7062244569
1.4451709985733032	1090568.2542219872
1.449403166770935	1465491.829327055
1.453631043434143	1912844.4423501806
1.4578542709350586	2225261.345993692
1.4620729684829712	2328912.365327035
1.4662868976593018	2282930.6305762427
1.4704961776733398	2213330.01851007
1.4747005701065063	2391454.058561216
1.4788999557495117	2763105.1043183045
1.4830944538116455	3025536.5440942906
1.4872838258743286	3311589.480771135
1.491468071937561	3745537.6588945864
1.4956470727920532	4288589.691578065
1.4998208284378052	4795715.400945891
1.5039892196655273	5158002.216113996
1.5081522464752197	5561546.922701594
1.5123097896575928	6042203.393199485
1.5164618492126465	6595344.03819694
1.5206083059310913	7477051.205574429
1.5247491598129272	8564988.39733667
1.5288842916488647	9538707.735762032
1.5330137014389038	10509091.407379704
1.5371372699737549	11684812.631432641
1.541254997253418	13001527.685958927
1.545366883277893	14350140.014063207
1.5494728088378906	15658267.088485783
1.5535727739334106	16695862.45135009
1.5576666593551636	17566616.802730154
1.561754584312439	18643778.540203057
1.5658363103866577	20033427.194304716
1.5699119567871094	21429143.396648403
1.5739814043045044	22372480.17085884
1.5780447721481323	22736228.911152717
1.582101821899414	22745844.60807274
1.5861525535583496	22301176.371848032
1.5901970863342285	20836853.62426474
1.5942351818084717	18506113.418574512
1.5982669591903687	15510688.714380203
1.6022924184799194	11869392.096698388
1.606311559677124	8448464.490032626
1.6103241443634033	5953482.950265429
1.6143304109573364	4233011.332172184
1.6183301210403442	3020201.332223679
1.6223233938217163	2202674.607868342
1.6263102293014526	1630917.7833357777
1.6302905082702637	1346355.898008627
1.634264349937439	1416938.9587994753
1.638231635093689	1688791.6912907222
1.6421923637390137	1927016.3183623266
1.646146535873413	2020538.88446462
1.6500942707061768	2101836.1364165293
1.6540353298187256	2127873.668385616
1.6579699516296387	2034550.2865372025
1.661897897720337	1858404.284033695
1.6658192873001099	1316736.2064443128
1.6697341203689575	714938.9606708292
1.6736423969268799	646001.9469241089
1.677544116973877	977162.086792527
1.6814392805099487	1271593.0699377952
1.6853278875350952	1292139.3231830075
1.6892099380493164	1108889.9705101582
1.6930854320526123	865343.7305553984
1.696954369544983	681064.0803206932
1.7008168697357178	646176.8163144694
1.7046726942062378	820957.7105168536
1.708522081375122	1052045.4295594532
1.712364912033081	1094118.6130100223
1.7162011861801147	1140536.0635706405
1.7200311422348022	1384698.8001433036
1.723854422569275	1496134.627361269
1.7276713848114014	1287703.5631865538
1.731481909751892	1054214.3752490673
1.7352858781814575	1004247.0883222669
1.7390835285186768	1111880.4428343698
1.7428747415542603	1338655.102141148
1.7466596364974976	1561630.2934870005
1.7504380941390991	1689847.9612747817
1.7542102336883545	1710868.4799524578
1.7579760551452637	1609454.4407976079
1.7617355585098267	1465629.994072343
1.7654887437820435	1349440.16898513
1.7692357301712036	1223846.9058942036
1.7729763984680176	1174118.857672363
1.776710867881775	1330936.3532725582
1.7804391384124756	1499874.2172477294
1.7841613292694092	1418385.466558111
1.7878772020339966	1163909.478085508
1.7915871143341064	956146.1952434336
1.7952908277511597	910687.0345754405
1.7989884614944458	999983.5565022996
1.8026801347732544	1090497.063356788
1.806365728378296	1131969.0304914992
1.8100452423095703	1246168.6789025532
1.8137187957763672	1355313.6631998206
1.817386507987976	1268948.8669714744
1.8210482597351074	1260928.132220839
1.8247040510177612	1338820.5230958576
1.828354001045227	1224672.6774211107
1.8319982290267944	1075402.7786521013
1.8356364965438843	969963.8278933575
1.8392690420150757	941688.273599874
1.8428958654403687	1010245.5798030864
1.8465168476104736	1091382.418556002
1.8501322269439697	1166159.6911485402
1.8537418842315674	1159584.9869887538
1.8573459386825562	1055775.858272414
1.860944390296936	917958.9785184449
1.864537239074707	832955.9911607074
1.8681244850158691	837209.6433366586
1.871706247329712	926366.1616940546
1.8752825260162354	1178969.330010913
1.8788533210754395	1619117.0447542234
1.8824186325073242	1971593.3315699252
1.8859784603118896	2034495.6618857956
1.8895330429077148	2043107.1603305496
1.8930821418762207	2211432.6872639367
1.8966259956359863	2260417.6110231024
1.9001644849777222	2016115.8419875493
1.9036977291107178	1870598.3206267308
1.9072256088256836	1883941.159062079
1.9107483625411987	1911208.814985942
1.9142658710479736	2014328.2962867373
1.9177782535552979	2005252.4024628974
1.9212853908538818	1752098.1582618565
1.9247875213623047	1553844.7997605428
1.9282845258712769	1459092.7338065987
1.9317764043807983	1311274.1851464203
1.9352631568908691	1170794.9544052493
1.9387450218200684	1058314.1940060137
1.942221760749817	1130258.8980784155
1.9456936120986938	1363234.1480431731
1.9491604566574097	1544903.1618743741
1.952622413635254	1571528.7511331495
1.956079363822937	1536245.9887847486
1.959531545639038	1652741.3858961044
1.962978720664978	1808248.6621535695
1.966421127319336	1924847.988963684
1.9698586463928223	2037608.089233847
1.9732913970947266	2139142.5809676913
1.9767193794250488	2340278.277054627
1.9801424741744995	2544724.8082027324
1.9835609197616577	2705215.5633244934
1.9869745969772339	2831937.3267610003
1.990383505821228	2932588.170323817
1.9937876462936401	3262613.664344065
1.9971871376037598	3618238.6577792023
2.000581979751587	3760259.0627957284
2.003972291946411	3828541.800201173
2.007357597351074	3963737.30688374
2.0107386112213135	4235913.37536979
2.0141148567199707	4371167.178863401
2.017486572265625	4316635.645987893
2.0208535194396973	4573935.809320522
2.0242159366607666	5009825.931574209
2.027573823928833	5206656.623836347
2.0309269428253174	5364278.111188833
2.034275770187378	5596736.245539295
2.0376198291778564	5863265.61014708
2.040959596633911	6204475.2989192875
2.044294595718384	6611450.878420342
2.0476250648498535	6915885.1604729695
2.0509510040283203	7023251.999500915
2.054272413253784	7187473.643502315
2.057589530944824	7562764.441971415
2.0609018802642822	7870933.570488118
2.0642096996307373	7992852.952505257
2.0675129890441895	8173551.769759554
2.0708119869232178	8393312.88661577
2.074106216430664	8454747.397585962
2.0773961544036865	8435817.836542873
2.080681324005127	8453310.864376727
2.0839622020721436	8456653.02455487
2.087238311767578	8476506.165158585
2.090510129928589	8475789.945007352
2.0937774181365967	8282694.856668063
2.0970399379730225	7993402.092052512
2.1002981662750244	7770962.032358195
2.1035518646240234	7587953.895308866
2.1068007946014404	7364480.976960226
2.1100454330444336	7074176.286049403
2.1132853031158447	6769763.637138543
2.116520881652832	6533310.384069868
2.1197516918182373	6377671.500850422
2.1229779720306396	6193839.834479253
2.12619948387146	5860915.633532758
2.1294167041778564	5431008.4708859995
2.132629156112671	5079382.622114464
2.1358368396759033	4801636.014516513
2.139039993286133	4503875.871318429
2.1422386169433594	4222145.189459931
2.145432472229004	3964248.667158317
2.1486217975616455	3721033.385862181
2.151806354522705	3506081.9713501674
2.1549863815307617	3252778.5795388175
2.1581614017486572	2925835.3863789346
2.16133189201355	2587890.968746097
2.1644976139068604	2301301.505648391
2.167658567428589	2111717.036304121
2.1708147525787354	2014217.1000943005
2.173966407775879	1930952.7580208948
2.1771130561828613	1825664.9995103974
2.1802549362182617	1703796.2756292366
2.183391809463501	1527999.9763958117
2.1865241527557373	1290653.323711702
2.1896514892578125	1033708.9967664032
2.1927738189697266	782765.2052406208
2.1958916187286377	543893.0173955557
2.1990041732788086	338098.49760382384
2.2021119594573975	216635.0661498077
2.2052149772644043	198768.5208607473
2.208312749862671	245352.5923432104
2.2114057540893555	308603.16141114244
2.214493751525879	365549.1239926759
2.217576742172241	413156.44813837856
2.2206547260284424	433565.6237187208
2.2237277030944824	410363.6084518656
2.2267956733703613	360828.7881975558
2.2298583984375	313332.33566613845
2.2329163551330566	280289.7368881103
2.235969066619873	250844.57658907198
2.2390167713165283	216720.84402877418
2.2420592308044434	189148.17538478522
2.2450966835021973	170687.800287056
2.248128890991211	153314.19734330208
2.2511560916900635	137314.22447995254
2.254178285598755	127033.76426881686
2.257194995880127	124258.12417364438
2.260206699371338	129108.04287355911
2.2632133960723877	138047.6105299609
2.266214609146118	141081.19248740136
2.2692108154296875	134449.35627129002
2.2722020149230957	128107.84276979175
2.2751877307891846	126544.08898754149
2.278168201446533	124218.93874286365
2.2811436653137207	117499.66970233322
2.284113883972168	106041.25508736036
2.287078857421875	91103.971818662
2.290038824081421	76512.43743337097
2.2929933071136475	68414.61071333438
2.295942783355713	70155.53635381635
2.298887014389038	82172.08085791925
2.301826238632202	107571.21024140534
2.304760217666626	152511.6997050665
2.3076889514923096	223561.4959939585
2.310612440109253	295846.56422277715
2.3135311603546143	287290.1804350528
2.3164443969726562	183588.5059919087
2.319352865219116	93755.42604250183
2.322256088256836	71451.76684256368
2.3251543045043945	77250.15966861827
2.328047275543213	82269.23034731546
2.330935478210449	80497.09189511687
2.3338186740875244	75900.22350246382
2.3366971015930176	75555.79083325887
2.3395702838897705	78179.90527552542
2.3424389362335205	79680.90343785188
2.3453025817871094	81189.04777182802
2.348161458969116	85279.2180046573
2.351015567779541	92562.6986471559
2.353865146636963	102904.87181113653
2.3567099571228027	116020.81008598632
2.3595502376556396	132392.12587743538
2.3623859882354736	153803.5104328826
2.3652172088623047	172843.63097140114
2.368043899536133	163204.26187518288
2.370866537094116	118643.97638747607
2.3736846446990967	78397.32754835
2.3764986991882324	69468.40033180523
2.3793084621429443	82536.18115196051
2.3821144104003906	106025.37962898801
2.384916305541992	134261.17200833396
2.387714147567749	162964.2867792288
2.3905084133148193	188068.76573780816
2.393299102783203	208104.55566855698
2.3960859775543213	227482.8093843554
2.398869514465332	248931.7930107165
2.4016497135162354	268217.1103676511
2.4044265747070312	283298.48995880975
2.407200336456299	303702.1609229694
2.409970998764038	335052.75701541913
2.4127390384674072	355024.78657571174
2.415503978729248	339758.3466890236
2.418266534805298	309011.3344201972
2.4210267066955566	296546.74056145805
2.4237842559814453	305141.66155619954
2.426539897918701	323950.4224751342
2.429293394088745	342239.89945754345
2.4320452213287354	346505.4274747773
2.4347951412200928	344510.7181248925
2.4375438690185547	369214.40959342784
2.440291166305542	426042.5574764006
2.443037271499634	476704.87800097273
2.445782423019409	498978.150264861
2.4485268592834473	508935.6635282414
2.451270818710327	523153.7155554277
2.454014539718628	546872.0739220062
2.4567582607269287	582825.8564504895
2.4595019817352295	623273.4934857328
2.4622461795806885	654777.9093083354
2.4649908542633057	674598.703920066
2.4677364826202393	685669.048740951
2.4704833030700684	691439.5844059468
2.473231554031372	699376.0518606922
2.4759814739227295	716968.8599901266
2.4787333011627197	756871.0094475339
2.481487512588501	824503.8590614351
