#wavelength (micron)	surface_flux (erg / (cm2 micron s))
0.40133895199999997	0.7624047624607632
0.40267674850666674	0.6369929016897469
0.40401900433502225	0.0788120988475751
0.4053657343494724	0.08430623544541804
0.4067169534639707	0.986128741302302
0.40807267664218394	5.499747850414612
0.4094329188976579	19.776108293670298
0.41079769529398347	53.32121381819697
0.41216702094496344	117.38857351876534
0.41354091101477997	222.67732245604114
0.4149193807181627	375.60243883019405
0.41630244532055655	567.5776301197377
0.41769012013829176	719.7244183161689
0.41908242053875283	550.7527613192274
0.4204793619405487	195.97068357577456
0.42188095981368384	526.6348701198417
0.42328722967972954	1791.7475286852005
0.4246981871119953	3062.189470921391
0.42611384773570193	4068.319648096375
0.4275342272281543	5075.030677435957
0.4289593413189149	6183.49723712172
0.43038920578997797	7377.957200539224
0.4318238364759446	8596.534964808056
0.43326324926419774	10069.233522249928
0.4347074600950785	11402.710390489194
0.4361564849620621	12681.938680444793
0.43761033991193565	14236.00718456517
0.4390690410449755	16109.343729769367
0.44053260451512544	17758.89330538844
0.4420010465301759	20000.42408276466
0.44347438335194317	22788.471582698705
0.4449526312964497	25612.13308074938
0.44643580673410455	27400.075710553476
0.44792392608988496	29133.48523090472
0.4494170058435179	31568.762728760204
0.450915062529663	33866.081183576505
0.4524181127380953	36047.52771988397
0.45392617311388894	36741.95931621006
0.45543926035760196	27938.07091837645
0.45695739122546064	21241.167773175155
0.4584805825295456	9755.864460619281
0.46000885113797746	5617.488598378091
0.46154221397510403	4749.627726828857
0.4630806880216877	3771.2233697373176
0.4646242903150934	2903.442406864307
0.4661730379494771	2260.5025481302846
0.4677269480759754	1755.4910537396365
0.4692860379028953	1296.245821815107
0.47085032469590504	901.3480401072472
0.4724198257782247	598.6997419445431
0.47399455853081884	389.94147545527693
0.4755745403925883	257.2910038410982
0.4771597888605636	176.58486434451072
0.47875032149009894	127.97527387127636
0.4803461558950659	94.27641763227712
0.48194730974804956	69.1276414435111
0.48355380078054305	51.080114076875866
0.4851656467831449	38.66867552265427
0.48678286560575545	30.377440162807872
0.4884054751577746	24.632607862020674
0.4900334934083006	20.418557841005203
0.4916669383863283	17.044833559110184
0.4933058281809494	14.173809048931785
0.4949501809415526	11.747616017373275
0.4966000148780246	9.643628704813597
0.4982553482609513	7.722846873075817
0.4999161994218212	6.0752904396305825
0.5015825867532273	4.819438959849473
0.5032545287090715	3.9945516191643184
0.5049320438047684	3.6069110107463622
0.506615150617451	3.556948487724953
0.5083038677861758	3.571231267105982
0.5099982140121297	3.6045310361579554
0.5116982080588369	3.640772567732292
0.5134038687523664	3.6838653994526394
0.515115214981541	3.744273757631947
0.5168322656981462	3.804101392948572
0.5185550399171401	3.886972170223984
0.5202835567168639	3.9622555381979114
0.5220178352392535	4.032225609731406
0.5237578946900511	4.102497484010329
0.525503754339018	4.180735206010434
0.527255433520148	4.265233840600153
0.5290129516318819	4.357473822102707
0.5307763281373216	4.46243469438959
0.532545582564446	4.579863092900161
0.5343207345063276	4.703815442583655
0.5361018036213486	4.831236530951223
0.5378888096334199	4.969277982636553
0.5396817723321979	5.10843726907289
0.5414807115733054	5.2487211771927225
0.5432856472785497	5.414245660341631
0.545096599436145	5.556021401066275
0.5469135881009322	5.68615908606152
0.5487366333946019	5.882455296690492
0.5505657555059172	6.066998845513302
0.5524009746909371	6.242720339986129
0.5542423112732402	6.404654978108622
0.556089785644151	6.560982058166571
0.557943418262965	6.70925117125977
0.5598032296571749	6.840151257780462
0.5616692404226988	6.9489477551186765
0.5635414712241079	7.041284338363184
0.5654199427948549	7.102648647866016
0.5673046759375044	7.060977926725859
0.569195691523963	7.009558092103533
0.5710930104957095	7.026709495416614
0.5729966538640286	6.986647395361374
0.5749066427102419	6.844587045317494
0.576822998185943	6.612364970805911
0.5787457415132294	6.341139710923126
0.5806748939849402	5.938350083582434
0.58261047696489	5.402096282598934
0.5845525118881064	4.64156024110126
0.5865010202610669	3.1808952818410727
0.588456023661937	1.2344466631603555
0.5904175437408102	1.1715395795552508
0.5923856022199464	3.721923756008506
0.5943602208940129	6.809785108331311
0.5963414216303263	9.765122168837728
0.598329226369094	12.910516795031244
0.6003236571236578	16.514358597671002
0.6023247359807368	20.68374141535973
0.6043324851006725	25.540896121155722
0.6063469267176749	31.141821177592565
0.6083680831400672	37.50216813392488
0.610395976750534	44.72992759130759
0.6124306300063692	52.78659439619495
0.6144720654397238	61.949155538101245
0.6165203056578563	72.08205877439946
0.6185753733433824	83.45302346952707
0.6206372912545272	96.11025047468098
0.6227060822253756	110.19129697311251
0.6247817691661269	125.73433466023026
0.6268643750633474	142.23747879136528
0.6289539229802253	162.0671282306215
0.6310504360568261	185.57127772920188
0.6331539375103489	210.97684512778875
0.6352644506353834	242.442307923803
0.6373819988041681	274.93670049625183
0.6395066054668487	309.797465122781
0.6416382941517382	354.37638145010726
0.6437770884655775	398.43981743667035
0.6459230120937961	429.8301899598704
0.6480760888007754	488.919023306639
0.6502363424301114	580.5286683486656
0.6524037969048785	668.687851341723
0.6545784762278948	761.5704410988379
0.6567604044819878	865.1100293687454
0.6589496058302612	997.2215847638257
0.6611461045163621	1140.6322225997242
0.66334992486475	1313.9187301868976
0.6655610912809659	1502.7753861579918
0.6677796282519025	1720.2583184734563
0.6700055603460756	1870.6635492487376
0.6722389122138959	2119.0351390810556
0.6744797085879423	2493.919288375371
0.6767279742832354	2766.527355093519
0.6789837341975129	3000.1879502697834
0.6812470133115047	3173.275643946373
0.6835178366892097	3243.5720058274237
0.6857962294781739	3169.7461343881996
0.6880822169097679	2969.0998904508147
0.6903758242994671	2660.27432250243
0.6926770770471321	2275.6301319168947
0.6949860006372892	2144.5826976345293
0.6973026206394136	2194.9725679314793
0.6996269627082117	2160.4954289802445
0.7019590525839058	2091.1207095261248
0.7042989160925188	2175.083982271107
0.7066465791461606	2293.8949034369875
0.7090020677433145	2367.527020857956
0.7113654079691256	2437.6868498211334
0.7137366259956894	2462.98083631539
0.7161157480823418	2235.994115069886
0.7185028005759496	2048.2869289366204
0.7208978099112028	2123.0132458449584
0.7233008026109069	2224.3263606897476
0.7257118052862767	2154.5415022390407
0.728130844637231	2216.121629591026
0.7305579474526884	2131.9283649722747
0.7329931406108642	2068.1879922885287
0.7354364510795671	2069.7460815057416
0.7378879059164991	2242.5570864496076
0.7403475322695541	2451.4918458669526
0.7428153573771193	2578.4220428864637
0.7452914085683765	2653.1259275701905
0.7477757132636044	2747.3794169858274
0.7502682989744831	2752.5652096024605
0.7527691933043982	2762.633358423485
0.7552784239487462	2774.906764102994
0.7577960186952422	2770.676966183631
0.7603220054242263	2671.2945444949655
0.7628564121089738	2167.1355083972117
0.7653992668160038	1102.221190260776
0.7679505977053904	626.4616992203399
0.7705104330310751	977.4277484787768
0.7730788011411788	1953.6722827087033
0.7756557304783162	2905.9076997034704
0.7782412495799106	3529.841880063851
0.7808353870785104	3964.097272569258
0.7834381717021055	4760.4411303960605
0.7860496322744459	5252.305627299803
0.7886697977153608	5947.5699795675955
0.7912986970410787	6906.5964413557895
0.793936359364549	7172.898283578171
0.7965828138957642	7847.702918375594
0.7992380899420836	9319.271466005195
0.8019022169085571	10650.682535275177
0.8045752242982523	11918.400160455798
0.80725714171258	12908.023663066486
0.809947998851622	12788.314399502467
0.8126478255144608	12343.061610101553
0.8153566515995091	11750.856919820093
0.8180745071048409	14028.740351544677
0.8208014221285237	19135.193962636844
0.8235374268689521	21228.89223458488
0.8262825516251822	24952.27044675128
0.8290368267972661	26598.780614907795
0.8318002828865904	28324.53706722251
0.8345729504962124	29930.902290531136
0.8373548603311998	32684.682495876572
0.8401460431989706	40800.69321309761
0.8429465300096338	45085.18922815006
0.8457563517763327	51024.44569867093
0.8485755396155872	58189.51796787552
0.8514041247476393	61629.71210630483
0.8542421384967981	70321.78612434669
0.8570896122917875	82803.71255641845
0.8599465776660935	92819.62550902045
0.8628130662583139	102591.5369392317
0.8656891098125085	112789.4118972626
0.8685747401785502	123019.58889509473
0.8714699893124788	133832.80421761415
0.8743748892768537	146519.0931496093
0.8772894722411099	159862.47082525666
0.8802137704819137	171034.0449767506
0.8831478163835201	178840.02927748524
0.8860916424381319	172922.70028666136
0.8890452812462591	141975.03827151045
0.89200876551708	108488.55063258509
0.8949821280688037	119007.97145954783
0.8979654018290332	133095.064878818
0.90095861983513	145391.93793611546
0.9039618152345804	213385.53259795925
0.9069750212853626	222164.45899811556
0.9099982713563137	234897.20696176516
0.9130315989275016	284201.8056773784
0.9160750375905932	313058.1730930867
0.9191286210492287	367007.4866671549
0.9221923831193928	457876.5868861705
0.9252663577297908	414786.91382928065
0.9283505789222235	205895.58731330352
0.9314450808519644	97269.94129790399
0.9345498977881376	103995.01545897659
0.9376650641140981	159334.1793630323
0.940790614327812	301172.0687383987
0.9439265830422381	359603.67938926246
0.9470730049857122	340933.95349294425
0.9502299150023314	230690.21676323327
0.9533973480523392	231291.60678057146
0.9565753392125138	232676.07010167086
0.9597639236765556	244425.47414049023
0.9629631367554774	202244.92239608295
0.9661730138779958	345880.8777908099
0.9693935905909224	543874.7231527636
0.972624902559559	647152.3204965019
0.9758669855680909	635940.9404555468
0.9791198755199847	691305.4273166204
0.9823836084383848	717761.1621142876
0.9856582204665127	869593.5273833714
0.9889437478680678	1099430.656849036
0.9922402270276282	1144585.20951202
0.9955476944510537	1176288.617379445
0.9988661867658906	1159872.4141098908
1.002195740721777	1136539.7123797834
1.0055363931908496	1459449.767599841
1.0088881811681525	1678122.7451744163
1.0122511417720463	1854201.3090519723
1.01562531224462	1765230.9701876135
1.019010729952102	1711635.5206474706
1.0224074323852759	1822282.9927359917
1.0258154571598936	2218744.114088302
1.0292348420170931	2499845.648719783
1.0326656248238169	2477859.623495605
1.0361078435732296	2382495.6123094354
1.0395615363851405	2738670.7945515835
1.0430267415064245	3303020.917508651
1.0465034973114462	3550656.466977384
1.0499918423024843	3580450.031083822
1.0534918151101593	3926986.345938457
1.05700345449386	4366488.281446042
1.0605267993421728	4635408.7947550025
1.0640618886733135	4775703.080565865
1.067608761635558	4774479.070469564
1.0711674575076766	4809428.648212463
1.0747380156993689	4668522.688864569
1.0783204757517002	4423910.905798922
1.0819148773375393	4385094.422600875
1.085521260261998	4169899.4156142524
1.0891396644628712	3727964.731955831
1.092770130011081	2916369.4735090532
1.0964126971111179	2017343.5823753036
1.1000674061014886	1591642.4226457567
1.10373429745516	1184452.5265693953
1.1074134117800107	500082.07181020296
1.1111047898192774	222579.79319651492
1.1148084724520084	206262.38974412586
1.1185245006935154	222932.10705315002
1.1222529156958272	282559.94745146227
1.1259937587481466	288396.2499338564
1.1297470712773072	284646.8094213529
1.1335128948482316	134127.59851977788
1.1372912711643925	200633.61914567836
1.1410822420682738	354654.1157325113
1.1448858495418348	268561.6517245041
1.1487021357069744	136659.1372951963
1.1525311428259977	87219.71274037467
1.1563729133020846	36725.762692881115
1.1602274896797582	36746.57624827609
1.1640949146453576	99584.57872259471
1.1679752310275089	209186.1787195542
1.1718684817976006	140727.26982620932
1.1757747100702594	84782.48408966223
1.1796939591038271	209663.61776424132
1.1836262723008397	293976.8035787724
1.1875716932085094	433021.7206860986
1.1915302655192046	505569.4439196211
1.1955020330709352	669248.5599062535
1.1994870398478386	1110963.9101481051
1.2034853299806647	1484612.9513250778
1.207496947747267	1528766.1781765157
1.2115219375730912	1636034.6790311337
1.2155603440316685	2005471.4861221313
1.2196122118451074	2513869.2584246295
1.2236775858845912	3071358.380112721
1.2277565111708733	3932267.689125182
1.2318490328747762	4584929.897850993
1.2359551963176922	5246656.200701699
1.2400750469720847	6237131.696668431
1.2442086304619917	7226970.072141226
1.248355992563532	8049818.042309435
1.2525171792054102	8460759.476532955
1.2566922364694284	9212378.392648954
1.2608812105909932	9909022.715478268
1.2650841479596302	10027856.25291482
1.2693010951194956	10052083.343459656
1.273532098769894	9514878.667310044
1.2777772057657937	8218491.32748234
1.2820364631183463	6882536.139008933
1.2863099179954076	5129331.905631895
1.2905976177220593	4278257.415441913
1.2948996097811327	3885521.2315341835
1.2992159418137368	3598168.8325635917
1.3035466616197826	3095679.2241352093
1.3078918171585154	2352018.6324525303
1.3122514565490437	1460207.8292113696
1.3166256280708741	1484247.9127258519
1.3210143801644436	1645662.4601701521
1.3254177614316587	1297004.7519718702
1.329835820636431	661132.404056394
1.3342686067052192	228926.72453234537
1.33871616872757	72557.44827792571
1.343178555956662	24881.909507240278
1.347655817809851	9073.959015278131
1.352148003869217	7298.5522578090095
1.3566551638821147	2990.968853503811
1.3611773477617217	1150.2608218870166
1.3657146055875944	1205.4337577690715
1.3702669876062197	2087.5786213042593
1.3748345442315741	5394.770463880854
1.3794173260456792	7220.143385177077
1.384015383799165	3011.277178538335
1.388628768411829	3878.0049124959933
1.3932575309732018	7358.700541688456
1.3979017227431125	6707.6420264489225
1.4025613951522564	11029.54043222967
1.407236599802764	11773.144982255377
1.4119273884687735	14072.51515989836
1.4166338130970026	9363.525040644234
1.4213559258073263	9205.66128383703
1.4260937788933508	13828.531230234708
1.4308474248229952	18754.42834914534
1.4356169162390722	25799.063508058647
1.4404023059598692	53178.98526511963
1.4452036469797356	69047.99853538204
1.450020992469668	79116.94696987755
1.4548543957779003	93881.40212761993
1.4597039104304934	103404.37888480136
1.4645695901319284	115411.909511771
1.469451488765702	67600.66191369385
1.4743496603949209	28853.5160736364
1.479264159262904	31311.475237650302
1.4841950397937806	33504.201796909714
1.4891423565930935	33780.8591752968
1.4941061644484037	55460.244947032465
1.4990865183298985	113895.69181828301
1.5040834733909982	113868.80751493043
1.5090970849689684	121727.00106671482
1.5141274085855316	69926.07201668472
1.5191744999474837	104004.79577791331
1.5242384149473087	211559.637979667
1.5293192096638	349276.80598200025
1.5344169403626793	396969.1861005791
1.5395316634972218	461285.17414627445
1.544663435708879	554016.3420279692
1.5498123138279087	803058.8707944853
1.554978354874002	1202548.8673799299
1.5601616160569156	1264145.5137573502
1.5653621547771055	1744320.233843752
1.5705800286263625	2509138.427274583
1.5758152953884506	2950466.0338773546
1.5810680130397454	3312334.9364351383
1.5863382397498782	3441863.3972409964
1.5916260338823778	3609887.4010663503
1.5969314539953192	3174106.7601894294
1.6022545588419705	2267134.2972281
1.6075954073714436	1492416.053663064
1.6129540587293487	909640.5470177378
1.6183305722584467	540691.9666151095
1.6237250074993084	323371.47204238456
1.6291374241909726	260954.18256077936
1.6345678822716092	199707.8797588862
1.6400164418791816	146893.99228849812
1.6454831633521123	218306.49344425523
1.6509681072299527	280867.88134272554
1.6564713342540527	320614.90768265567
1.6619929053682332	350957.8270615731
1.6675328817194608	174315.16318084986
1.6730913246585257	70334.40585052357
1.6786682957407209	162671.76381043528
1.6842638567265233	223077.73660168162
1.6898780695822784	146117.04258475697
1.6955109964808863	66723.92109045273
1.7011626998024894	67729.57892829462
1.7068332421351646	122992.33927847371
1.7125226862756153	149242.87125671163
1.7182310952298672	186598.1185745839
1.7239585322139668	180222.7437210122
1.7297050606546804	120979.87648816776
1.7354707441901962	121019.82277442333
1.7412556466708302	131584.29362197747
1.747059832159733	192986.23820598391
1.752883364933599	249083.43865652414
1.7587263094833776	194222.74258334032
1.7645887305149892	148292.3950614267
1.7704706929500391	104672.26924158109
1.7763722619265396	115324.21719954719
1.7822935027996283	110846.80451527887
1.7882344811422937	85217.03277687274
1.7941952627461015	51083.899840382976
1.8001759136219222	47589.75259062105
1.8061765000006618	29728.488808726495
1.8121970883339975	33401.540042152184
1.818237745295111	57963.43390522381
1.8242985377794283	77203.00939473894
1.8303795329053596	32598.87764139433
1.8364807980150446	15442.207746378102
1.8426024006750947	29962.982780996583
1.8487444086773455	50606.01506975603
1.8549068900396033	46993.84819896547
1.861089913006402	17610.76463934664
1.8672935460497566	9487.464285706474
1.873517857869923	13200.412825467838
1.879762917396156	46471.06105386101
1.8860287937874767	83019.30980392746
1.8923155564334353	111170.56513649813
1.8986232749548801	101194.72387762045
1.9049520192047298	45759.693296413214
1.9113018592687456	39343.89870352992
1.9176728654663082	24630.26709310643
1.9240651083511964	23148.957899833214
1.9304786587123668	11903.85921920921
1.9369135875747419	4388.262958212069
1.9433699661999908	7363.391823750106
1.9498478660873244	10125.841145992832
1.9563473589742824	15107.196044960148
1.9628685168375302	31935.327486081016
1.9694114118936552	52112.18340803976
1.9759761165999676	67098.2721806398
1.9825627036553009	85014.36452220104
1.9891712460008188	106925.02505299657
1.9958018168208218	121756.19798630309
2.002454489543558	122285.08007671939
2.0091293378420367	120035.89228698461
2.0158264356348434	106941.83589482866
2.02254585708696	79946.72950542587
2.029287676610583	130639.58377163945
2.036051968865952	163798.97811850178
2.042838808762172	195620.98590194024
2.049648271458046	225257.36611755576
2.0564804323629065	264099.7991986452
2.0633353671374497	324462.4393909451
2.0702131516945745	404111.4857462374
2.0771138622002234	388501.75112153107
2.084037575074224	386489.8531666558
2.0909843669911385	391485.6758322676
2.097954314881109	389197.366356293
2.1049474959307126	411017.4424150657
2.1119639875838154	423818.63002341066
2.1190038675424283	397838.6511153487
2.12606721376757	376569.4103878901
2.1331541044801288	347975.60228681413
2.140264618161729	311643.9350782101
2.147398833555602	282631.8348020496
2.154556829667454	229777.3231743155
2.1617386857663456	186206.35339990785
2.1689444813855667	162453.13070097184
2.176174296323519	134909.37667396892
2.1834282106445975	113600.17652992721
2.19070630468008	59784.41625972044
2.1980086590290138	15485.575797704027
2.2053353545591103	14110.033973478208
2.2126864724076407	33154.86394106793
2.220062093982333	25095.312455299292
2.2274623009622747	16086.869770367284
2.2348871752988155	12381.50294573006
2.2423367992164787	8176.691279049141
2.2498112552138667	5766.344709940312
2.25731062606458	5372.922094569794
2.2648349948181288	2819.330219869417
2.272384444800856	3297.4570544933117
2.2799590596168593	5720.60218376977
2.2875589231489153	5797.692241009263
2.295184119559412	5191.681967982573
2.302834733291277	12632.154132208248
2.3105108490689146	23389.23593877753
2.3182125518991445	11404.382140328238
2.325939927072142	4448.9377343068445
2.3336930601623824	4472.66039301955
2.341472037029591	2023.8764974278363
2.3492769438196897	3252.3183481038473
2.3571078669657557	10699.892880844985
2.364964893188975	15043.5438538514
