#wavelength (micron)	surface_flux (erg / (cm2 micron s))
0.40133895199999997	5.127539612243447e-05
0.40267674850666674	6.779381188079104e-05
0.40401900433502225	3.072810963689899e-05
0.4053657343494724	3.6914854468069264e-05
0.4067169534639707	0.00012683598991593585
0.40807267664218394	0.0003166693607876025
0.4094329188976579	0.000637278061639497
0.41079769529398347	0.0010910898591736916
0.41216702094496344	0.001665271916998323
0.41354091101477997	0.0024197431815333363
0.4149193807181627	0.0032030284974241584
0.41630244532055655	0.004062477517514949
0.41769012013829176	0.0050711582074338905
0.41908242053875283	0.0048322279078274145
0.4204793619405487	0.00373646617976382
0.42188095981368384	0.006490174712330215
0.42328722967972954	0.012873179612288404
0.4246981871119953	0.018774712862442082
0.42611384773570193	0.023923958942252518
0.4275342272281543	0.030222239704635348
0.4289593413189149	0.03711353415287731
0.43038920578997797	0.04484042975317778
0.4318238364759446	0.05404879082423388
0.43326324926419774	0.06454681490572783
0.4347074600950785	0.0760707655551002
0.4361564849620621	0.0884059068158352
0.43761033991193565	0.10093294335863287
0.4390690410449755	0.1120045342637276
0.44053260451512544	0.12440567861747667
0.4420010465301759	0.13281853285260162
0.44347438335194317	0.14910605802091853
0.4449526312964497	0.1769615625739882
0.44643580673410455	0.20301464892975687
0.44792392608988496	0.23426962578554839
0.4494170058435179	0.2764724108146853
0.450915062529663	0.32787227917740874
0.4524181127380953	0.3821491349709354
0.45392617311388894	0.43211036170755385
0.45543926035760196	0.4710948958028276
0.45695739122546064	0.5078456554029993
0.4584805825295456	0.5201399876724977
0.46000885113797746	0.5510563067058031
0.46154221397510403	0.5893514499455839
0.4630806880216877	0.6129429085755724
0.4646242903150934	0.6269126556645079
0.4661730379494771	0.6162102579316703
0.4677269480759754	0.5977086528379986
0.4692860379028953	0.5722338968533126
0.47085032469590504	0.5561450511974163
0.4724198257782247	0.5390609646809187
0.47399455853081884	0.5095606492779187
0.4755745403925883	0.48975029727731445
0.4771597888605636	0.47238054412078795
0.47875032149009894	0.46021061098040744
0.4803461558950659	0.4343851437326264
0.48194730974804956	0.3929497450851465
0.48355380078054305	0.332268585916754
0.4851656467831449	0.26176095016788764
0.48678286560575545	0.22848254547800628
0.4884054751577746	0.20880814312264775
0.4900334934083006	0.18764329847524314
0.4916669383863283	0.17151072989838606
0.4933058281809494	0.156949847631637
0.4949501809415526	0.14362423837701613
0.4966000148780246	0.12994739505407163
0.4982553482609513	0.10950071771204112
0.4999161994218212	0.09182730221219335
0.5015825867532273	0.07338300064153286
0.5032545287090715	0.05399831461689037
0.5049320438047684	0.05093443164862239
0.506615150617451	0.05911602702400644
0.5083038677861758	0.06136185536461545
0.5099982140121297	0.06602951553567309
0.5116982080588369	0.07315075317652708
0.5134038687523664	0.08077621624326305
0.515115214981541	0.08898658594349731
0.5168322656981462	0.09656196716120169
0.5185550399171401	0.10582067909945324
0.5202835567168639	0.11412397918257804
0.5220178352392535	0.12071345975017275
0.5237578946900511	0.12527794276730128
0.525503754339018	0.13195249346969307
0.527255433520148	0.13868656545707317
0.5290129516318819	0.14474021576692878
0.5307763281373216	0.15137044438833747
0.532545582564446	0.159751049831935
0.5343207345063276	0.16822540230540214
0.5361018036213486	0.1745837837974879
0.5378888096334199	0.17033778549658232
0.5396817723321979	0.45879311842999726
0.5414807115733054	0.1772703594673128
0.5432856472785497	0.1948724916109208
0.545096599436145	0.20370231058981872
0.5469135881009322	0.2069871360187093
0.5487366333946019	0.2274273913248028
0.5505657555059172	0.2475401496458339
0.5524009746909371	0.26628124609770015
0.5542423112732402	0.28402246092646766
0.556089785644151	0.30172215245205164
0.557943418262965	0.31848187599715844
0.5598032296571749	0.33274687342102993
0.5616692404226988	0.344412253605515
0.5635414712241079	0.3575131782785427
0.5654199427948549	0.3634868599038261
0.5673046759375044	0.3341351840103563
0.569195691523963	0.30851018910469735
0.5710930104957095	0.33682960443530213
0.5729966538640286	0.3499617055947003
0.5749066427102419	0.34563930163004986
0.576822998185943	0.3358258729832491
0.5787457415132294	0.3374032879707092
0.5806748939849402	0.3217110641137644
0.58261047696489	0.2895122681215563
0.5845525118881064	0.24469675934500995
0.5865010202610669	0.14542017653841338
0.588456023661937	0.039227690390206946
0.5904175437408102	0.029877254726601778
0.5923856022199464	0.12487851371176151
0.5943602208940129	0.25456961663389027
0.5963414216303263	0.39013086583025186
0.598329226369094	0.5172823043002357
0.6003236571236578	0.7125632838902858
0.6023247359807368	0.9998785596284672
0.6043324851006725	1.3957338393860752
0.6063469267176749	1.8935883674363003
0.6083680831400672	2.394051896392504
0.610395976750534	2.9647508867564047
0.6124306300063692	3.5994608129402765
0.6144720654397238	4.314360490606182
0.6165203056578563	5.0649874495599
0.6185753733433824	5.90879328691638
0.6206372912545272	6.8205222019191
0.6227060822253756	7.737163819447086
0.6247817691661269	8.39685293378991
0.6268643750633474	8.628080609326469
0.6289539229802253	9.92438029196925
0.6310504360568261	11.762269673620343
0.6331539375103489	12.857853598364827
0.6352644506353834	15.358520396221666
0.6373819988041681	16.796249638116638
0.6395066054668487	17.86161835146979
0.6416382941517382	19.820221009348565
0.6437770884655775	19.65696976516082
0.6459230120937961	14.851330519893681
0.6480760888007754	14.539637383359898
0.6502363424301114	20.89319427543454
0.6524037969048785	24.236434167057926
0.6545784762278948	27.733194183721853
0.6567604044819878	28.496587085129175
0.6589496058302612	34.41084524618268
0.6611461045163621	43.304133712192844
0.66334992486475	55.566484391136996
0.6655610912809659	67.6051220072799
0.6677796282519025	84.11100480993213
0.6700055603460756	97.58080432204872
0.6722389122138959	115.4564531620941
0.6744797085879423	138.87849895028108
0.6767279742832354	154.47999334210482
0.6789837341975129	163.29645763763085
0.6812470133115047	167.05161365451673
0.6835178366892097	167.8213021916669
0.6857962294781739	161.20816412188756
0.6880822169097679	143.36156073355363
0.6903758242994671	101.13178999925988
0.6926770770471321	43.880949116491735
0.6949860006372892	41.073227905013454
0.6973026206394136	67.37887665480436
0.6996269627082117	62.923987834068
0.7019590525839058	43.88855920441757
0.7042989160925188	46.7652819212653
0.7066465791461606	54.27756006508274
0.7090020677433145	58.968673905740275
0.7113654079691256	58.850026903869015
0.7137366259956894	51.593130107864376
0.7161157480823418	21.685611940839557
0.7185028005759496	3.5838164180901337
0.7208978099112028	7.117519114813533
0.7233008026109069	10.674272977364947
0.7257118052862767	8.549055829695803
0.728130844637231	10.798384396587672
0.7305579474526884	9.57601887476553
0.7329931406108642	14.106759397609398
0.7354364510795671	19.132484927680338
0.7378879059164991	30.9224728040501
0.7403475322695541	57.250932071524105
0.7428153573771193	93.57577880396371
0.7452914085683765	124.40672813657638
0.7477757132636044	172.8313506527822
0.7502682989744831	213.72700245365078
0.7527691933043982	247.76239438506394
0.7552784239487462	288.1518830586132
0.7577960186952422	319.50511914060127
0.7603220054242263	338.15661502201647
0.7628564121089738	324.27273917479374
0.7653992668160038	224.46117187739998
0.7679505977053904	175.0219632216201
0.7705104330310751	237.13701823140485
0.7730788011411788	364.8994176380464
0.7756557304783162	460.2329355143679
0.7782412495799106	485.9888008671742
0.7808353870785104	462.4872823821895
0.7834381717021055	441.21956614547685
0.7860496322744459	334.4108925971743
0.7886697977153608	308.04044596162873
0.7912986970410787	453.1761019214064
0.793936359364549	530.3393138851123
0.7965828138957642	459.62518560083555
0.7992380899420836	431.4608184988533
0.8019022169085571	470.5824455426814
0.8045752242982523	504.7361743475707
0.80725714171258	436.9224153486536
0.809947998851622	193.89424395270115
0.8126478255144608	41.258394900000894
0.8153566515995091	17.118973871136426
0.8180745071048409	53.84501995372144
0.8208014221285237	120.73680276770327
0.8235374268689521	116.88808272899811
0.8262825516251822	145.3231011975936
0.8290368267972661	119.25553009072473
0.8318002828865904	87.95582943794875
0.8345729504962124	81.71406678956701
0.8373548603311998	111.24160377013457
0.8401460431989706	213.66552506507287
0.8429465300096338	284.10717262647125
0.8457563517763327	397.81563983420216
0.8485755396155872	507.41672728596416
0.8514041247476393	609.5004298840711
0.8542421384967981	729.3034836973038
0.8570896122917875	861.4961480165746
0.8599465776660935	989.8894645417752
0.8628130662583139	1033.5016696120906
0.8656891098125085	982.551782425629
0.8685747401785502	803.6455621177626
0.8714699893124788	638.0156235319683
0.8743748892768537	541.5471458722772
0.8772894722411099	450.67810893018435
0.8802137704819137	315.799149586752
0.8831478163835201	208.8404819430508
0.8860916424381319	93.80404665618173
0.8890452812462591	12.217228381509372
0.89200876551708	0.34464701759344873
0.8949821280688037	0.06706687562952576
0.8979654018290332	0.06788671388308386
0.90095861983513	0.3440823250070878
0.9039618152345804	1.1286615421174788
0.9069750212853626	0.7673915733576447
0.9099982713563137	1.2044801012780564
0.9130315989275016	4.162094222990528
0.9160750375905932	7.903550974885325
0.9191286210492287	31.347354782165763
0.9221923831193928	55.968469393239545
0.9252663577297908	25.468074468698575
0.9283505789222235	3.2969130122182873
0.9314450808519644	0.07003079774612771
0.9345498977881376	0.002529288929322483
0.9376650641140981	0.049336353462205565
0.940790614327812	0.14316899030617797
0.9439265830422381	0.09747968880619462
0.9470730049857122	0.10422732601478683
0.9502299150023314	0.11756095160923877
0.9533973480523392	0.07295936734584366
0.9565753392125138	0.12074076911378026
0.9597639236765556	0.1351591404721574
0.9629631367554774	0.585382473117882
0.9661730138779958	6.467621471702863
0.9693935905909224	14.143723423458962
0.972624902559559	13.70997224394053
0.9758669855680909	6.101433429909203
0.9791198755199847	5.381530726870998
0.9823836084383848	5.6285463978564305
0.9856582204665127	7.248620654688044
0.9889437478680678	9.635261156888271
0.9922402270276282	11.209540305172458
0.9955476944510537	10.690070416549585
0.9988661867658906	10.267505953808397
1.002195740721777	8.323630182675773
1.0055363931908496	7.032361960961531
1.0088881811681525	6.083058629879369
1.0122511417720463	5.610586153032873
1.01562531224462	2.250596321325741
1.019010729952102	0.42167217603565915
1.0224074323852759	0.16722798299233213
1.0258154571598936	0.35913765260113467
1.0292348420170931	0.652418155645905
1.0326656248238169	0.35747524287184207
1.0361078435732296	0.2649102884778008
1.0395615363851405	1.4057016896136396
1.0430267415064245	4.156385512293321
1.0465034973114462	6.08561229286526
1.0499918423024843	8.317131077799694
1.0534918151101593	21.63930094801311
1.05700345449386	41.67345325827143
1.0605267993421728	50.54742859860644
1.0640618886733135	51.128284986996505
1.067608761635558	44.78837849812012
1.0711674575076766	36.92922793457928
1.0747380156993689	29.076227583514385
1.0783204757517002	22.65893282491393
1.0819148773375393	16.797676189265097
1.085521260261998	12.807191240651512
1.0891396644628712	11.014934801308089
1.092770130011081	8.903811314765013
1.0964126971111179	4.779309300126984
1.1000674061014886	2.7360209180522603
1.10373429745516	1.8588717934467185
1.1074134117800107	0.5687529317537074
1.1111047898192774	0.12051958077689867
1.1148084724520084	0.037122221407406696
1.1185245006935154	0.008663191550372804
1.1222529156958272	0.0040645627857270085
1.1259937587481466	0.002717570496748541
1.1297470712773072	0.00614739224111329
1.1335128948482316	0.0053248727395771986
1.1372912711643925	0.017891085343642237
1.1410822420682738	0.04819999129956652
1.1448858495418348	0.029431548777768702
1.1487021357069744	0.006611839763434465
1.1525311428259977	0.003701974636720703
1.1563729133020846	0.0007765106090639972
1.1602274896797582	4.168343927111548e-05
1.1640949146453576	0.0038276957115844154
1.1679752310275089	0.01609470433124339
1.1718684817976006	0.006984948074947031
1.1757747100702594	0.003434332639354159
1.1796939591038271	0.016438464887344042
1.1836262723008397	0.012313232590235213
1.1875716932085094	0.004265902536346153
1.1915302655192046	0.011400079248382778
1.1955020330709352	0.03522234696631573
1.1994870398478386	0.07177748547213711
1.2034853299806647	0.0630796016109163
1.207496947747267	0.04004989696069221
1.2115219375730912	0.036466912167744586
1.2155603440316685	0.04857775255805961
1.2196122118451074	0.09382682048689639
1.2236775858845912	0.19789073745563818
1.2277565111708733	0.7371422803780616
1.2318490328747762	1.1951670765679783
1.2359551963176922	2.2655510996390236
1.2400750469720847	7.306685412322376
1.2442086304619917	17.249975499672242
1.248355992563532	25.976171792553085
1.2525171792054102	24.135775381146907
1.2566922364694284	26.526371982803795
1.2608812105909932	50.34003242593578
1.2650841479596302	112.74341140480587
1.2693010951194956	180.64755325141755
1.273532098769894	124.27211534957046
1.2777772057657937	57.45199046987451
1.2820364631183463	34.75146753339725
1.2863099179954076	13.61482278260539
1.2905976177220593	5.468160674787127
1.2948996097811327	4.371199586153019
1.2992159418137368	2.6241037023811042
1.3035466616197826	2.2991396775418638
1.3078918171585154	2.071761139688708
1.3122514565490437	0.8509521897529281
1.3166256280708741	0.5706938570967646
1.3210143801644436	0.6091573463951035
1.3254177614316587	0.6303921812518655
1.329835820636431	0.40594413242317867
1.3342686067052192	0.2657916373101892
1.33871616872757	0.1381777516493677
1.343178555956662	0.01446213694042965
1.347655817809851	0.001339756491313883
1.352148003869217	0.0001687505543342345
1.3566551638821147	2.977342884061704e-05
1.3611773477617217	1.3923263098118385e-06
1.3657146055875944	1.2324963961921728e-06
1.3702669876062197	1.0524141503491111e-06
1.3748345442315741	1.0406028968375904e-05
1.3794173260456792	1.5686801381066075e-05
1.384015383799165	3.124044371254468e-06
1.388628768411829	1.081234055159e-05
1.3932575309732018	2.013937211800878e-05
1.3979017227431125	5.399561345475038e-05
1.4025613951522564	0.00012664813748832144
1.407236599802764	0.00019506374705579907
1.4119273884687735	0.0006659814349930736
1.4166338130970026	0.0006024296112350395
1.4213559258073263	0.0006642273531653429
1.4260937788933508	0.0015561226491529626
1.4308474248229952	0.002165538624189375
1.4356169162390722	0.0028320971115655628
1.4404023059598692	0.008823030102968409
1.4452036469797356	0.02626369397400563
1.450020992469668	0.11159824676687397
1.4548543957779003	0.21729344215595703
1.4597039104304934	0.1602886381993656
1.4645695901319284	0.07169247369790353
1.469451488765702	0.012409764213700387
1.4743496603949209	0.0012497587257138839
1.479264159262904	0.0018372325612463962
1.4841950397937806	0.0008149001221394261
1.4891423565930935	0.0005925472496624347
1.4941061644484037	0.0008813652671924857
1.4990865183298985	0.000734580244538778
1.5040834733909982	0.001124753221285961
1.5090970849689684	0.002112084400434925
1.5141274085855316	0.0004816347016247496
1.5191744999474837	0.0010275246961487944
1.5242384149473087	0.008385408606709133
1.5293192096638	0.03146390263619263
1.5344169403626793	0.022840758363076467
1.5395316634972218	0.03889337035834716
1.544663435708879	0.0955797737860457
1.5498123138279087	0.3335522652495131
1.554978354874002	1.272796694051726
1.5601616160569156	3.4619372152244106
1.5653621547771055	14.39956888670607
1.5705800286263625	43.10726234832285
1.5758152953884506	72.51213335536426
1.5810680130397454	97.03000207949948
1.5863382397498782	127.79686393855802
1.5916260338823778	222.54857445889436
1.5969314539953192	256.7557588197712
1.6022545588419705	218.9313211991025
1.6075954073714436	122.63234939426404
1.6129540587293487	46.30532953432328
1.6183305722584467	11.666937083484777
1.6237250074993084	2.7551638500889637
1.6291374241909726	0.6156464666470406
1.6345678822716092	0.2374994636531402
1.6400164418791816	0.05638428702363959
1.6454831633521123	0.04731222052701951
1.6509681072299527	0.014926208326231014
1.6564713342540527	0.6378093827220978
1.6619929053682332	1.5165125905680708
1.6675328817194608	0.4552459575572603
1.6730913246585257	0.08774504456508296
1.6786682957407209	0.6037068754641717
1.6842638567265233	0.6532902831884893
1.6898780695822784	0.1834277405901339
1.6955109964808863	0.01715209210504058
1.7011626998024894	0.010744380504489401
1.7068332421351646	0.14865163043095486
1.7125226862756153	0.27098670260525404
1.7182310952298672	0.3679844998898621
1.7239585322139668	0.22126712266228474
1.7297050606546804	0.014054592711974604
1.7354707441901962	0.06556281688203731
1.7412556466708302	0.2546174698500722
1.747059832159733	0.4475003909731105
1.752883364933599	0.5494831491484808
1.7587263094833776	0.317910393985933
1.7645887305149892	0.2183431336166309
1.7704706929500391	0.15746379022772186
1.7763722619265396	0.43240600345364105
1.7822935027996283	0.6527638207321502
1.7882344811422937	0.1918062238539139
1.7941952627461015	0.051307351543597654
1.8001759136219222	0.0303039387984952
1.8061765000006618	0.023722217837734146
1.8121970883339975	0.026236054823067845
1.818237745295111	0.04207274547099588
1.8242985377794283	0.08994806355512279
1.8303795329053596	0.03221685529060191
1.8364807980150446	0.0040116530506392545
1.8426024006750947	0.0140824461069884
1.8487444086773455	0.01692433493063149
1.8549068900396033	0.009158788935619045
1.861089913006402	0.006242778977519203
1.8672935460497566	0.0031829749886767445
1.873517857869923	0.0022717583037984816
1.879762917396156	0.022502523672234893
1.8860287937874767	0.06513938896871697
1.8923155564334353	0.06404866412346373
1.8986232749548801	0.03280623479001775
1.9049520192047298	0.013692110245853189
1.9113018592687456	0.013193280623566667
1.9176728654663082	0.01573898707628694
1.9240651083511964	0.023933636895538766
1.9304786587123668	0.007197541666224557
1.9369135875747419	0.0003848131444455611
1.9433699661999908	0.00018134452909377216
1.9498478660873244	0.0001763103838945557
1.9563473589742824	0.003698904208680852
1.9628685168375302	0.013979659894805393
1.9694114118936552	0.018821600603327326
1.9759761165999676	0.022279238954448066
1.9825627036553009	0.020736101704333477
1.9891712460008188	0.03878014376832531
1.9958018168208218	0.07925257285720455
2.002454489543558	0.08432478222801498
2.0091293378420367	0.04736393220876003
2.0158264356348434	0.0421732785437039
2.02254585708696	0.07215073140202621
2.029287676610583	0.16768142487457727
2.036051968865952	0.17705579061638516
2.042838808762172	0.1720725009196362
2.049648271458046	0.1930016191594219
2.0564804323629065	0.22435782993750722
2.0633353671374497	0.2325866816016658
2.0702131516945745	0.22826956133111945
2.0771138622002234	0.18256004243731538
2.084037575074224	0.15964051041065827
2.0909843669911385	0.1391062118833925
2.097954314881109	0.11512954470855544
2.1049474959307126	0.10744809067332962
2.1119639875838154	0.11369762177346891
2.1190038675424283	0.12015864722775063
2.12606721376757	0.137364622276831
2.1331541044801288	0.1544362040341235
2.140264618161729	0.16957961034838367
2.147398833555602	0.1896897188483698
2.154556829667454	0.18553211957807772
2.1617386857663456	0.1519423167204084
2.1689444813855667	0.13461047627627445
2.176174296323519	0.1386972976205607
2.1834282106445975	0.12553491845231107
2.19070630468008	0.07422981420018267
2.1980086590290138	0.017392216156843818
2.2053353545591103	0.004298551333660277
2.2126864724076407	0.006947200678839966
2.220062093982333	0.002786066700108589
2.2274623009622747	0.0023395731545089917
2.2348871752988155	0.0012701946080027468
2.2423367992164787	0.00059375768372986
