#wavelength (micron)	surface_flux (erg / (cm2 micron s))
0.40133895199999997	0.006223421382645285
0.40267674850666674	0.006256212850137696
0.40401900433502225	0.0014831300506338344
0.4053657343494724	0.001660663173538459
0.4067169534639707	0.010084342712370565
0.40807267664218394	0.037788764093255024
0.4094329188976579	0.100117998869414
0.41079769529398347	0.21171218136568504
0.41216702094496344	0.3875053251344444
0.41354091101477997	0.6442409884451464
0.4149193807181627	0.9889477285419415
0.41630244532055655	1.4111269944714764
0.41769012013829176	1.7776914590248465
0.41908242053875283	1.50716873193225
0.4204793619405487	0.8413963265911063
0.42188095981368384	1.7387791885921822
0.42328722967972954	4.448944427286799
0.4246981871119953	7.113031366096485
0.42611384773570193	9.273574813616296
0.4275342272281543	11.271603920131705
0.4289593413189149	14.39522600730637
0.43038920578997797	17.74995674145857
0.4318238364759446	21.29888767596155
0.43326324926419774	25.328850934441476
0.4347074600950785	29.888941684895666
0.4361564849620621	35.03399445301971
0.43761033991193565	40.80515165912881
0.4390690410449755	47.2211447781147
0.44053260451512544	54.43545371799734
0.4420010465301759	62.35710155501218
0.44347438335194317	71.38637482503752
0.4449526312964497	81.77632669669539
0.44643580673410455	93.19014707674711
0.44792392608988496	105.84864116494458
0.4494170058435179	120.05832538772141
0.450915062529663	135.73642341205306
0.4524181127380953	151.94899899522437
0.45392617311388894	161.0759888349292
0.45543926035760196	154.1133669151013
0.45695739122546064	137.32260748777955
0.4584805825295456	96.10505221053528
0.46000885113797746	82.0081569706451
0.46154221397510403	77.09075938064889
0.4630806880216877	70.15135859438438
0.4646242903150934	62.52275176045615
0.4661730379494771	55.34689543368667
0.4677269480759754	48.60890167265005
0.4692860379028953	41.72153400206146
0.47085032469590504	35.06106064941858
0.4724198257782247	29.050381966122696
0.47399455853081884	23.952241789547756
0.4755745403925883	19.960117669922276
0.4771597888605636	16.97322807608795
0.47875032149009894	14.792342749747213
0.4803461558950659	12.769691927910088
0.48194730974804956	10.74067465831176
0.48355380078054305	8.858650850039597
0.4851656467831449	7.279160109090548
0.48678286560575545	6.175600543052916
0.4884054751577746	5.374868259883502
0.4900334934083006	4.731292457573878
0.4916669383863283	4.190253781470834
0.4933058281809494	3.690116279438606
0.4949501809415526	3.22697657002902
0.4966000148780246	2.7871112745552544
0.4982553482609513	2.3345555344435343
0.4999161994218212	1.9283567112867244
0.5015825867532273	1.5878747379061682
0.5032545287090715	1.3299282774372856
0.5049320438047684	1.2373509054880862
0.506615150617451	1.2612338617387742
0.5083038677861758	1.2768151623662678
0.5099982140121297	1.3075508405513996
0.5116982080588369	1.3455708377212288
0.5134038687523664	1.3823142220775957
0.515115214981541	1.428044907460398
0.5168322656981462	1.4734682808600663
0.5185550399171401	1.5285002486319437
0.5202835567168639	1.5788411309248787
0.5220178352392535	1.623505470659455
0.5237578946900511	1.6624168945210764
0.525503754339018	1.7068327480893448
0.527255433520148	1.7524966766745032
0.5290129516318819	1.7986846509132142
0.5307763281373216	1.8488713030595616
0.532545582564446	1.905912927229355
0.5343207345063276	1.9657069046646656
0.5361018036213486	2.0234500436964495
0.5378888096334199	2.081211079861481
0.5396817723321979	2.1287648054711874
0.5414807115733054	2.180569554609306
0.5432856472785497	2.267106816538562
0.545096599436145	2.339131162095801
0.5469135881009322	2.398543002738612
0.5487366333946019	2.499985018584115
0.5505657555059172	2.597678591908164
0.5524009746909371	2.6923481934781583
0.5542423112732402	2.7835098398138123
0.556089785644151	2.871950897469102
0.557943418262965	2.9573734345896865
0.5598032296571749	3.0356498292216574
0.5616692404226988	3.1045444779265456
0.5635414712241079	3.1694465845754407
0.5654199427948549	3.215903701353978
0.5673046759375044	3.1837641619187678
0.569195691523963	3.1522967218424283
0.5710930104957095	3.2116028543127824
0.5729966538640286	3.2164372815665296
0.5749066427102419	3.161026500859721
0.576822998185943	3.0621859975776418
0.5787457415132294	2.9505004033442277
0.5806748939849402	2.7670957401892644
0.58261047696489	2.5169135542172953
0.5845525118881064	2.16905075830399
0.5865010202610669	1.47599849822024
0.588456023661937	0.5443642461397736
0.5904175437408102	0.5088883452163786
0.5923856022199464	1.7013778375136444
0.5943602208940129	3.104617819163081
0.5963414216303263	4.438130389092272
0.598329226369094	5.858282445730951
0.6003236571236578	7.5654359069677
0.6023247359807368	9.616367267909688
0.6043324851006725	12.099874721976072
0.6063469267176749	15.013836991767324
0.6083680831400672	18.15461313810849
0.610395976750534	21.741978566854574
0.6124306300063692	25.781763191740577
0.6144720654397238	30.385338843559087
0.6165203056578563	35.48043485760511
0.6185753733433824	41.25039741680812
0.6206372912545272	47.69639544358754
0.6227060822253756	54.784879609037155
0.6247817691661269	62.11962027361136
0.6268643750633474	69.34870491063207
0.6289539229802253	79.61767658023959
0.6310504360568261	91.9598343331907
0.6331539375103489	103.91117252628973
0.6352644506353834	120.42155012676905
0.6373819988041681	135.81673171154208
0.6395066054668487	151.83109503823326
0.6416382941517382	171.97386323029605
0.6437770884655775	188.17191581251575
0.6459230120937961	190.8358548937379
0.6480760888007754	211.16659798488593
0.6502363424301114	255.21761643937865
0.6524037969048785	290.77388455850496
0.6545784762278948	331.80208330051926
0.6567604044819878	366.52974467239505
0.6589496058302612	420.17679200301757
0.6611461045163621	485.73399711051024
0.66334992486475	567.8178208068828
0.6655610912809659	651.9281813595999
0.6677796282519025	748.6258528256988
0.6700055603460756	811.4934116894293
0.6722389122138959	916.7689678292586
0.6744797085879423	1078.2935916491167
0.6767279742832354	1186.9889817804074
0.6789837341975129	1263.3882384326082
0.6812470133115047	1303.6179991988506
0.6835178366892097	1300.942105891063
0.6857962294781739	1243.5044308399206
0.6880822169097679	1135.4403038793018
0.6903758242994671	947.9733461282308
0.6926770770471321	700.5206276335438
0.6949860006372892	669.3635300493471
0.6973026206394136	755.4059960417507
0.6996269627082117	734.2242394745911
0.7019590525839058	668.4518693689938
0.7042989160925188	689.1044415588506
0.7066465791461606	739.0166818530893
0.7090020677433145	774.8996029153387
0.7113654079691256	783.1980109857503
0.7137366259956894	759.8824826266783
0.7161157480823418	539.7906987566981
0.7185028005759496	375.2853251482002
0.7208978099112028	458.40409461227074
0.7233008026109069	518.8604862778824
0.7257118052862767	470.29942217563837
0.728130844637231	512.6967386532118
0.7305579474526884	506.8929873807495
0.7329931406108642	537.9501107792381
0.7354364510795671	571.5975071201577
0.7378879059164991	676.9749381054435
0.7403475322695541	810.307741313591
0.7428153573771193	938.4217258477677
0.7452914085683765	1015.8658100773903
0.7477757132636044	1132.6574169546188
0.7502682989744831	1208.0676833557231
0.7527691933043982	1257.7997914669772
0.7552784239487462	1318.4941298299327
0.7577960186952422	1352.9458135804357
0.7603220054242263	1350.7386538474873
0.7628564121089738	1195.1450301246812
0.7653992668160038	740.5740889935612
0.7679505977053904	527.271984079046
0.7705104330310751	731.8558945527523
0.7730788011411788	1199.2470076264926
0.7756557304783162	1600.804218239612
0.7782412495799106	1823.7310944093974
0.7808353870785104	1944.5040107063621
0.7834381717021055	2218.940623604087
0.7860496322744459	2259.631539534673
0.7886697977153608	2452.361402052711
0.7912986970410787	2979.8921999417607
0.793936359364549	3152.142534116007
0.7965828138957642	3274.7052978240786
0.7992380899420836	3727.871770983194
0.8019022169085571	4166.726040887286
0.8045752242982523	4561.937508382935
0.80725714171258	4574.418597418986
0.809947998851622	3590.895489660933
0.8126478255144608	2515.6821781000963
0.8153566515995091	2060.3554824218654
0.8180745071048409	3067.6360052108444
0.8208014221285237	4521.424485250515
0.8235374268689521	4545.435965122891
0.8262825516251822	5707.124512542816
0.8290368267972661	5805.821648078378
0.8318002828865904	5658.410370177925
0.8345729504962124	5671.855938201219
0.8373548603311998	6261.244110764316
0.8401460431989706	8765.96322722284
0.8429465300096338	9978.944184751645
0.8457563517763327	11805.024598068749
0.8485755396155872	13890.926186729923
0.8514041247476393	15349.513109065878
0.8542421384967981	17457.56273668382
0.8570896122917875	20103.713859383875
0.8599465776660935	22509.583122193406
0.8628130662583139	24458.45218810759
0.8656891098125085	26061.68763791131
0.8685747401785502	26969.51997325202
0.8714699893124788	27776.165676987155
0.8743748892768537	29087.563299173282
0.8772894722411099	30265.547515186652
0.8802137704819137	30175.00001034648
0.8831478163835201	28726.30400833349
0.8860916424381319	22088.146077127567
0.8890452812462591	10530.659299278568
0.89200876551708	3888.4550718748224
0.8949821280688037	4144.169566041745
0.8979654018290332	4085.547504868052
0.90095861983513	5243.671456896866
0.9039618152345804	11742.989041109076
0.9069750212853626	11516.71226818049
0.9099982713563137	11072.283968841453
0.9130315989275016	16339.405775709449
0.9160750375905932	19618.69767691301
0.9191286210492287	26945.62285646422
0.9221923831193928	38617.02129553458
0.9252663577297908	27541.88932166035
0.9283505789222235	7597.9554570617
0.9314450808519644	392.12485460278555
0.9345498977881376	344.1366739502047
0.9376650641140981	2139.821387760987
0.940790614327812	5221.067274020333
0.9439265830422381	4004.4155333083545
0.9470730049857122	2780.8482458026374
0.9502299150023314	2073.7668790962744
0.9533973480523392	2258.207403791201
0.9565753392125138	2448.1553669756895
0.9597639236765556	2549.6844614678243
0.9629631367554774	2478.4056288331894
0.9661730138779958	9368.609790245766
0.9693935905909224	19877.350257584952
0.972624902559559	24031.195367209817
0.9758669855680909	20059.4229710729
0.9791198755199847	24003.505411289545
0.9823836084383848	26499.136010965532
0.9856582204665127	33408.81930192613
0.9889437478680678	46631.73301364227
0.9922402270276282	52800.06111638028
0.9955476944510537	58444.69381623128
0.9988661867658906	56022.817000135445
1.002195740721777	47115.56156996034
1.0055363931908496	52882.68931612216
1.0088881811681525	53763.70024897526
1.0122511417720463	50885.40651637791
1.01562531224462	33770.82342313468
1.019010729952102	20088.66114378445
1.0224074323852759	19343.470158895827
1.0258154571598936	29013.817260184744
1.0292348420170931	35785.81095695575
1.0326656248238169	27381.181040626103
1.0361078435732296	20709.459348183755
1.0395615363851405	32299.464462731463
1.0430267415064245	50805.383768377294
1.0465034973114462	61365.06408169008
1.0499918423024843	64246.320729281215
1.0534918151101593	79923.95901848293
1.05700345449386	98180.9230268529
1.0605267993421728	103760.1842120516
1.0640618886733135	102951.60848804715
1.067608761635558	96972.7345433526
1.0711674575076766	91213.96086851497
1.0747380156993689	83405.20741981886
1.0783204757517002	74035.00115495124
1.0819148773375393	66377.4437508951
1.085521260261998	58626.115475218554
1.0891396644628712	51146.03057170164
1.092770130011081	39541.94487872516
1.0964126971111179	24820.440435728386
1.1000674061014886	16302.611422127404
1.10373429745516	9599.29179644893
1.1074134117800107	3279.2466148774397
1.1111047898192774	964.1435348176245
1.1148084724520084	527.6051348970956
1.1185245006935154	392.4292669405292
1.1222529156958272	404.72812904139016
1.1259937587481466	385.77501116889636
1.1297470712773072	495.64733514926934
1.1335128948482316	335.88603397391336
1.1372912711643925	835.3264880419956
1.1410822420682738	1698.297411463503
1.1448858495418348	979.9967227669342
1.1487021357069744	312.236020679487
1.1525311428259977	196.15021561981362
1.1563729133020846	55.249569145188694
1.1602274896797582	34.00455488492659
1.1640949146453576	219.1658885814991
1.1679752310275089	661.4776142178781
1.1718684817976006	359.59372281088184
1.1757747100702594	265.9140259306461
1.1796939591038271	894.0110133468305
1.1836262723008397	960.5809555807564
1.1875716932085094	963.560353800806
1.1915302655192046	1286.9520136884798
1.1955020330709352	1988.2369386449234
1.1994870398478386	3390.8650797645537
1.2034853299806647	4366.092562734228
1.207496947747267	4156.418807880758
1.2115219375730912	4308.240168195689
1.2155603440316685	5598.923332973788
1.2196122118451074	7282.186239578452
1.2236775858845912	9561.082541108386
1.2277565111708733	16530.441298938815
1.2318490328747762	22256.048457231005
1.2359551963176922	30149.84873266782
1.2400750469720847	44878.28781262732
1.2442086304619917	63052.58940230382
1.248355992563532	77344.43873325696
1.2525171792054102	80913.4920560964
1.2566922364694284	94567.82951176181
1.2608812105909932	128227.12383731178
1.2650841479596302	164180.70360641723
1.2693010951194956	188216.65135044773
1.273532098769894	159200.44643121478
1.2777772057657937	111614.77782683884
1.2820364631183463	79051.44652277633
1.2863099179954076	49593.51989635735
1.2905976177220593	33538.3765040018
1.2948996097811327	30075.006157586213
1.2992159418137368	26521.511218658412
1.3035466616197826	22021.77538477055
1.3078918171585154	17834.547074360045
1.3122514565490437	10135.39545086795
1.3166256280708741	8740.98904289609
1.3210143801644436	10109.15316718013
1.3254177614316587	9318.796095561776
1.329835820636431	4867.7946768086595
1.3342686067052192	1820.5056207615871
1.33871616872757	714.2971134055772
1.343178555956662	98.5074374162781
1.347655817809851	13.26454975132454
1.352148003869217	7.46240892919857
1.3566551638821147	1.492611414379351
1.3611773477617217	0.273874417003375
1.3657146055875944	0.291177334860671
1.3702669876062197	0.34248140967891244
1.3748345442315741	2.28844497958567
1.3794173260456792	3.4297888698959733
1.384015383799165	0.7963774817207385
1.388628768411829	2.3330143736909448
1.3932575309732018	4.323003788296127
1.3979017227431125	5.8000347960722705
1.4025613951522564	10.813988089258446
1.407236599802764	10.692057027917699
1.4119273884687735	18.015523851290148
1.4166338130970026	13.990687992820053
1.4213559258073263	15.09985869132274
1.4260937788933508	27.703072032751134
1.4308474248229952	46.49395398998238
1.4356169162390722	57.68308905547894
1.4404023059598692	168.76251986351184
1.4452036469797356	294.97809863214843
1.450020992469668	470.78485514490126
1.4548543957779003	745.8117715580526
1.4597039104304934	1020.6435966083795
1.4645695901319284	660.9340014474639
1.469451488765702	229.02353211011288
1.4743496603949209	57.213684362051346
1.479264159262904	57.826551915001474
1.4841950397937806	45.601174548139625
1.4891423565930935	46.80107453886077
1.4941061644484037	76.01032743848319
1.4990865183298985	104.41771900656255
1.5040834733909982	121.00850765355725
1.5090970849689684	140.7890407115492
1.5141274085855316	37.05700469323761
1.5191744999474837	102.24559011590308
1.5242384149473087	288.20338081944
1.5293192096638	627.6879582514973
1.5344169403626793	681.4482663208535
1.5395316634972218	820.7118853035432
1.544663435708879	1345.7547944080566
1.5498123138279087	2593.242620931109
1.554978354874002	4937.942800040187
1.5601616160569156	8159.264724708181
1.5653621547771055	18459.803118868822
1.5705800286263625	36428.30865880961
1.5758152953884506	50374.371674681126
1.5810680130397454	66737.2392749788
1.5863382397498782	80923.28389284469
1.5916260338823778	100029.9585963621
1.5969314539953192	98506.73855969173
1.6022545588419705	76840.40375957073
1.6075954073714436	49439.17328212801
1.6129540587293487	25930.647488906045
1.6183305722584467	10859.474824255018
1.6237250074993084	4398.389361858688
1.6291374241909726	2146.834571258086
1.6345678822716092	1433.936388801251
1.6400164418791816	916.4457285382726
1.6454831633521123	1005.98880402953
1.6509681072299527	867.0844645467695
1.6564713342540527	2099.4036791323915
1.6619929053682332	3983.5354974866705
1.6675328817194608	1675.8410341363058
1.6730913246585257	564.3440839820813
1.6786682957407209	1792.849214325184
1.6842638567265233	2316.779176279262
1.6898780695822784	1143.1626708878591
1.6955109964808863	348.32591332111025
1.7011626998024894	258.4216705858928
1.7068332421351646	718.5853788161992
1.7125226862756153	1156.771829472944
1.7182310952298672	1719.0642154872714
1.7239585322139668	1483.0350426824996
1.7297050606546804	557.6074556375752
1.7354707441901962	608.0322259752625
1.7412556466708302	1071.6074713223888
1.747059832159733	1926.7316773187617
1.752883364933599	2530.57601989218
1.7587263094833776	1822.4559485097845
1.7645887305149892	1357.5373973744645
1.7704706929500391	965.6603261924528
1.7763722619265396	1044.268763205116
1.7822935027996283	969.3661696232812
1.7882344811422937	532.4823815112101
1.7941952627461015	279.90533601897863
1.8001759136219222	268.5350099199995
1.8061765000006618	128.33791465116508
1.8121970883339975	103.57395557976999
1.818237745295111	161.7817187638731
1.8242985377794283	282.5472474911769
1.8303795329053596	110.07842378794878
1.8364807980150446	29.799156136731128
1.8426024006750947	92.08685587550352
1.8487444086773455	137.96029219861407
1.8549068900396033	100.39076246814022
1.861089913006402	43.024516145293696
1.8672935460497566	12.072311894076014
1.873517857869923	11.24863123582229
1.879762917396156	122.12679873546266
1.8860287937874767	273.1249750295048
1.8923155564334353	309.5223702582599
1.8986232749548801	247.6719866806545
1.9049520192047298	87.81286557157539
1.9113018592687456	63.33300304550168
1.9176728654663082	58.36912709838465
1.9240651083511964	74.77265966944789
1.9304786587123668	26.11034207105266
1.9369135875747419	3.569231306289624
1.9433699661999908	3.5805095969565723
1.9498478660873244	8.601089065143835
1.9563473589742824	32.619614308680134
1.9628685168375302	105.80944328415704
1.9694114118936552	171.09685444030006
1.9759761165999676	207.2463010470783
1.9825627036553009	240.68814299775897
1.9891712460008188	331.82253253713213
1.9958018168208218	456.56368068313117
2.002454489543558	452.98663855044833
2.0091293378420367	359.8952232946277
2.0158264356348434	326.37225026206266
2.02254585708696	331.7493773427734
2.029287676610583	633.8042766362482
2.036051968865952	711.1875193259358
2.042838808762172	834.7746619324982
2.049648271458046	1057.8053484541601
2.0564804323629065	1236.4548312622169
2.0633353671374497	1369.717621557449
2.0702131516945745	1508.6580401922915
2.0771138622002234	1418.4054503736804
2.084037575074224	1390.3528485302163
2.0909843669911385	1353.9210626271297
2.097954314881109	1270.052370357354
2.1049474959307126	1273.310152782362
2.1119639875838154	1318.0796102270135
2.1190038675424283	1285.8005791152475
2.12606721376757	1268.822835120213
2.1331541044801288	1197.3887835797348
2.140264618161729	1133.8928395657827
2.147398833555602	1121.8418874417082
2.154556829667454	971.1648526291466
2.1617386857663456	784.8242740202868
2.1689444813855667	695.7562197160026
2.176174296323519	626.1342315639562
2.1834282106445975	545.7087892272899
2.19070630468008	296.76973484584175
2.1980086590290138	69.86706648305596
2.2053353545591103	43.66471763655705
2.2126864724076407	91.00437868688547
2.220062093982333	51.70440879896136
2.2274623009622747	41.77217171550427
2.2348871752988155	32.68345391541172
2.2423367992164787	16.462630988193066
2.2498112552138667	9.37506986106148
2.25731062606458	9.180152480329847
2.2648349948181288	2.758605570608189
2.272384444800856	3.9855280021909003
2.2799590596168593	9.820270879137887
2.2875589231489153	6.599519272473261
2.295184119559412	5.031231935440505
2.302834733291277	15.374534648203861
2.3105108490689146	37.485719595382506
2.3182125518991445	21.450514202618344
2.325939927072142	6.595419214381274
2.3336930601623824	5.695260434489049
2.341472037029591	6.256703231581511
2.3492769438196897	5.028028344032063
2.3571078669657557	22.520075112999997
2.364964893188975	41.642985474874166
