#wavelength (micron)	surface_flux (erg / (cm2 micron s))
0.40133895199999997	0.2676260260729725
0.40267674850666674	0.2477225242751791
0.40401900433502225	0.041993197395608924
0.4053657343494724	0.04484809685828209
0.4067169534639707	0.37097619059987846
0.40807267664218394	1.5883010277459788
0.4094329188976579	4.7410138473444885
0.41079769529398347	11.49630189855234
0.41216702094496344	24.071623002831018
0.41354091101477997	44.847085957013434
0.4149193807181627	75.60937595387509
0.41630244532055655	115.41429809393414
0.41769012013829176	149.5358567466698
0.41908242053875283	122.66528965424051
0.4204793619405487	61.21862167783423
0.42188095981368384	147.5072313812062
0.42328722967972954	419.54080017947945
0.4246981871119953	702.7136266089103
0.42611384773570193	954.5758794933255
0.4275342272281543	1219.954954004549
0.4289593413189149	1514.087442098808
0.43038920578997797	1843.653195063203
0.4318238364759446	2213.1411733977616
0.43326324926419774	2626.6726218261483
0.4347074600950785	3083.9465277075537
0.4361564849620621	3589.803259295688
0.43761033991193565	4157.386860275621
0.4390690410449755	4787.391112768979
0.44053260451512544	5482.810927761175
0.4420010465301759	6247.547742679828
0.44347438335194317	7090.708045325507
0.4449526312964497	8017.997499125738
0.44643580673410455	9009.77146271
0.44792392608988496	10053.53867991287
0.4494170058435179	11179.00476363012
0.450915062529663	12385.157858737537
0.4524181127380953	13581.157549608984
0.45392617311388894	14153.845285866866
0.45543926035760196	13418.33708296623
0.45695739122546064	11316.457865470817
0.4584805825295456	7038.2716648127725
0.46000885113797746	5625.921854263098
0.46154221397510403	5071.453093963129
0.4630806880216877	4383.844286173486
0.4646242903150934	3672.649449117237
0.4661730379494771	3057.42372242746
0.4677269480759754	2502.972955366424
0.4692860379028953	1930.860682827255
0.47085032469590504	1384.996473374469
0.4724198257782247	930.054908971935
0.47399455853081884	600.4696133657195
0.4755745403925883	388.29174658202504
0.4771597888605636	261.91066381508693
0.47875032149009894	188.82675455994772
0.4803461558950659	141.2054803117678
0.48194730974804956	107.69682729107087
0.48355380078054305	84.52505399838897
0.4851656467831449	68.81920797150357
0.48678286560575545	58.188819677198566
0.4884054751577746	50.57781862873564
0.4900334934083006	44.8039836951088
0.4916669383863283	39.860441457167454
0.4933058281809494	35.26860320976329
0.4949501809415526	30.995037332056583
0.4966000148780246	26.89864805796841
0.4982553482609513	22.7916826005768
0.4999161994218212	18.879188590171875
0.5015825867532273	15.562626197227372
0.5032545287090715	13.188579566355795
0.5049320438047684	11.988310387025573
0.506615150617451	11.644660844673814
0.5083038677861758	11.557964155984216
0.5099982140121297	11.548128529912876
0.5116982080588369	11.513010240868391
0.5134038687523664	11.4719839922958
0.515115214981541	11.506936741382553
0.5168322656981462	11.582559619121168
0.5185550399171401	11.688235511781684
0.5202835567168639	11.772101722886598
0.5220178352392535	11.836776076715612
0.5237578946900511	11.881809698893981
0.525503754339018	11.932679718796413
0.527255433520148	11.984979294699835
0.5290129516318819	12.043473538954286
0.5307763281373216	12.119724508328465
0.532545582564446	12.220657545858538
0.5343207345063276	12.333434206763943
0.5361018036213486	12.448460122856225
0.5378888096334199	12.569241293063708
0.5396817723321979	12.663098662334635
0.5414807115733054	12.769528377895842
0.5432856472785497	12.962617986848604
0.545096599436145	13.118401264718987
0.5469135881009322	13.248642178581528
0.5487366333946019	13.464759170776537
0.5505657555059172	13.661826418515162
0.5524009746909371	13.860827370937495
0.5542423112732402	14.05425055730021
0.556089785644151	14.230795018885523
0.557943418262965	14.400183663784064
0.5598032296571749	14.548946175481735
0.5616692404226988	14.665817674629363
0.5635414712241079	14.758891696798518
0.5654199427948549	14.798374970233413
0.5673046759375044	14.652083495774294
0.569195691523963	14.488488479613405
0.5710930104957095	14.45175915213088
0.5729966538640286	14.221884982670158
0.5749066427102419	13.815897542115689
0.576822998185943	13.259711174926908
0.5787457415132294	12.598911941352718
0.5806748939849402	11.71964065929993
0.58261047696489	10.64470181381139
0.5845525118881064	9.181865344184283
0.5865010202610669	6.335890176011786
0.588456023661937	2.4669617711027763
0.5904175437408102	2.358444207843797
0.5923856022199464	7.435710964082112
0.5943602208940129	13.30347446250313
0.5963414216303263	18.77982189832078
0.598329226369094	24.768717804644687
0.6003236571236578	31.81291086600254
0.6023247359807368	40.11051714662675
0.6043324851006725	49.91521800385989
0.6063469267176749	61.23547385887833
0.6083680831400672	73.78851282288353
0.610395976750534	88.24036761060059
0.6124306300063692	104.86817820100943
0.6144720654397238	124.17528674286275
0.6165203056578563	146.30446532900962
0.6185753733433824	171.87656229352308
0.6206372912545272	201.17354533356934
0.6227060822253756	234.4120139930012
0.6247817691661269	271.21821782007356
0.6268643750633474	311.5537344217715
0.6289539229802253	361.62638217977894
0.6310504360568261	420.1103142142834
0.6331539375103489	483.3600983300693
0.6352644506353834	561.2926142279669
0.6373819988041681	644.71179788957
0.6395066054668487	737.6264590230209
0.6416382941517382	847.3329587360862
0.6437770884655775	961.6103659543392
0.6459230120937961	1066.7853520049805
0.6480760888007754	1213.6213971020582
0.6502363424301114	1412.3766668724238
0.6524037969048785	1614.8528642161286
0.6545784762278948	1845.0479741987256
0.6567604044819878	2086.512149590377
0.6589496058302612	2379.190416024281
0.6611461045163621	2714.4837787054644
0.66334992486475	3100.4076454479723
0.6655610912809659	3514.868470194096
0.6677796282519025	3950.3352358195725
0.6700055603460756	4217.139906782197
0.6722389122138959	4704.5041473027
0.6744797085879423	5478.679521264332
0.6767279742832354	6017.386153182448
0.6789837341975129	6440.034289663623
0.6812470133115047	6706.409579569102
0.6835178366892097	6748.444044020287
0.6857962294781739	6517.931737303114
0.6880822169097679	6039.684714741343
0.6903758242994671	5339.857470639972
0.6926770770471321	4542.276398868488
0.6949860006372892	4175.594464898497
0.6973026206394136	4101.578145220845
0.6996269627082117	3954.9965069545424
0.7019590525839058	3819.6776772696016
0.7042989160925188	3878.600350587924
0.7066465791461606	4018.2344956150914
0.7090020677433145	4140.890347835488
0.7113654079691256	4208.248416293417
0.7137366259956894	4204.839592301791
0.7161157480823418	3757.360242973371
0.7185028005759496	3412.054253445489
0.7208978099112028	3586.4136368642785
0.7233008026109069	3627.4358136172723
0.7257118052862767	3404.5449474164484
0.728130844637231	3422.2778395712744
0.7305579474526884	3340.317400503367
0.7329931406108642	3304.49218791219
0.7354364510795671	3267.483937366092
0.7378879059164991	3383.2461785957203
0.7403475322695541	3520.9534893457894
0.7428153573771193	3634.9148384559144
0.7452914085683765	3660.1547407306243
0.7477757132636044	3741.903560483871
0.7502682989744831	3754.2587705272017
0.7527691933043982	3727.724119408392
0.7552784239487462	3716.1590168789985
0.7577960186952422	3672.9297277017204
0.7603220054242263	3571.889363790187
0.7628564121089738	3023.4104399616476
0.7653992668160038	1742.8752829481793
0.7679505977053904	1190.048197828701
0.7705104330310751	1658.4579549899106
0.7730788011411788	2797.8877059098268
0.7756557304783162	3923.6798281236584
0.7782412495799106	4666.99942866879
0.7808353870785104	5215.488556876682
0.7834381717021055	6298.038180283175
0.7860496322744459	7048.928020794872
0.7886697977153608	8018.009719046748
0.7912986970410787	9387.903001864233
0.793936359364549	9777.628992325068
0.7965828138957642	10993.804465272933
0.7992380899420836	13645.740704372196
0.8019022169085571	15779.008563282468
0.8045752242982523	17916.044738696928
0.80725714171258	19652.290718619075
0.809947998851622	19871.631542157644
0.8126478255144608	19748.040708884022
0.8153566515995091	20082.13394171152
0.8180745071048409	24558.323386258035
0.8208014221285237	31273.33451737154
0.8235374268689521	34108.3715776162
0.8262825516251822	40426.66946960915
0.8290368267972661	44483.28997788083
0.8318002828865904	47991.496267421
0.8345729504962124	51993.47362481897
0.8373548603311998	57665.84370190553
0.8401460431989706	68989.23489777624
0.8429465300096338	77266.86603008755
0.8457563517763327	87499.1204558331
0.8485755396155872	98357.33814918945
0.8514041247476393	104632.41965577092
0.8542421384967981	117820.90757429869
0.8570896122917875	136725.56802822973
0.8599465776660935	152142.94147790363
0.8628130662583139	167159.2252488718
0.8656891098125085	182529.8578867823
0.8685747401785502	197691.67051591157
0.8714699893124788	213648.74404535067
0.8743748892768537	231662.92710544454
0.8772894722411099	250351.07376513633
0.8802137704819137	266964.0369654409
0.8831478163835201	279684.8179354904
0.8860916424381319	273099.3112630895
0.8890452812462591	232114.91309692978
0.89200876551708	190219.56751167483
0.8949821280688037	196819.38525430058
0.8979654018290332	203264.67522155284
0.90095861983513	233535.8232880741
0.9039618152345804	337679.31857731147
0.9069750212853626	359056.2544683854
0.9099982713563137	366121.1065934752
0.9130315989275016	422286.07911586785
0.9160750375905932	471781.4133026869
0.9191286210492287	533796.0215960605
0.9221923831193928	614285.1905713581
0.9252663577297908	529433.6212666525
0.9283505789222235	234012.62071823218
0.9314450808519644	74527.68705283674
0.9345498977881376	102825.82950220846
0.9376650641140981	226109.72441958293
0.940790614327812	395414.940077906
0.9439265830422381	366908.0238247465
0.9470730049857122	302477.0398464834
0.9502299150023314	254911.59058758427
0.9533973480523392	299167.26605391706
0.9565753392125138	280798.75355316384
0.9597639236765556	291238.6543797885
0.9629631367554774	293286.76020436245
0.9661730138779958	479375.53921777406
0.9693935905909224	709678.8829680085
0.972624902559559	862240.6061170745
0.9758669855680909	866886.8567132253
0.9791198755199847	999575.8890082845
0.9823836084383848	1134686.3388851143
0.9856582204665127	1293515.9574697036
0.9889437478680678	1545471.8044920983
0.9922402270276282	1693471.7286274545
0.9955476944510537	1821735.637352031
0.9988661867658906	1665165.506632046
1.002195740721777	1490868.612855685
1.0055363931908496	1848703.2237925865
1.0088881811681525	1961684.0960244534
1.0122511417720463	1998941.3427968314
1.01562531224462	1849316.701354305
1.019010729952102	1726385.9655211593
1.0224074323852759	1801011.946836788
1.0258154571598936	2069147.108371437
1.0292348420170931	2249284.205021424
1.0326656248238169	2143054.738621499
1.0361078435732296	2054463.2219551618
1.0395615363851405	2259554.9527646825
1.0430267415064245	2534697.5098565063
1.0465034973114462	2692057.943833573
1.0499918423024843	2736964.351548119
1.0534918151101593	2879589.2572874357
1.05700345449386	3027556.055722392
1.0605267993421728	3075972.446451311
1.0640618886733135	3072920.270642672
1.067608761635558	3020384.806415175
1.0711674575076766	2971730.90763641
1.0747380156993689	2896003.6364781214
1.0783204757517002	2794835.5284648347
1.0819148773375393	2711522.4938541437
1.085521260261998	2576735.6812659665
1.0891396644628712	2353950.6535755116
1.092770130011081	1962696.899953256
1.0964126971111179	1490057.1404878674
1.1000674061014886	1140231.9533820474
1.10373429745516	762931.6418544817
1.1074134117800107	387840.48748197604
1.1111047898192774	174356.3139561812
1.1148084724520084	127242.09692343896
1.1185245006935154	125555.27562225577
1.1222529156958272	147353.12121123658
1.1259937587481466	180421.17001764962
1.1297470712773072	215310.28977573136
1.1335128948482316	125927.00103981717
1.1372912711643925	204481.44777941366
1.1410822420682738	337195.5684566563
1.1448858495418348	209751.49556320487
1.1487021357069744	121901.38449657011
1.1525311428259977	96701.37983726859
1.1563729133020846	46501.62609764919
1.1602274896797582	55010.45846624527
1.1640949146453576	112948.48639425788
1.1679752310275089	181666.5535885619
1.1718684817976006	138881.25756086875
1.1757747100702594	139524.39099675763
1.1796939591038271	287085.42594142223
1.1836262723008397	366025.7107200409
1.1875716932085094	472296.0396226284
1.1915302655192046	562743.1980288412
1.1955020330709352	671812.1014312332
1.1994870398478386	879303.6057487171
1.2034853299806647	1063806.2142792146
1.207496947747267	1129565.467312049
1.2115219375730912	1213721.5259893893
1.2155603440316685	1419708.7979620625
1.2196122118451074	1616182.7398409524
1.2236775858845912	1827864.0961317748
1.2277565111708733	2197685.577856036
1.2318490328747762	2465471.7584857014
1.2359551963176922	2769061.683182389
1.2400750469720847	3203576.935170522
1.2442086304619917	3629731.510607503
1.248355992563532	4002196.9802418286
1.2525171792054102	4255545.33763981
1.2566922364694284	4620738.116106145
1.2608812105909932	5126433.294461537
1.2650841479596302	5503134.174878505
1.2693010951194956	5664203.55416385
1.273532098769894	5330935.130914763
1.2777772057657937	4707848.546212659
1.2820364631183463	4108586.972178088
1.2863099179954076	3420357.7274929928
1.2905976177220593	2962434.0227710004
1.2948996097811327	2797464.875495964
1.2992159418137368	2627920.9033815432
1.3035466616197826	2295446.325785813
1.3078918171585154	2004679.3025777445
1.3122514565490437	1590560.2773473547
1.3166256280708741	1437585.5081232
1.3210143801644436	1444116.206573598
1.3254177614316587	1187504.343907618
1.329835820636431	646761.8214679474
1.3342686067052192	217994.7783645355
1.33871616872757	63293.5161710285
1.343178555956662	11563.101221986037
1.347655817809851	4166.350057956507
1.352148003869217	3248.962523128163
1.3566551638821147	1015.9499321073206
1.3611773477617217	402.0111091926245
1.3657146055875944	609.6269236524536
1.3702669876062197	897.0436256945568
1.3748345442315741	3095.120303044525
1.3794173260456792	4058.873287307213
1.384015383799165	1181.2099950860595
1.388628768411829	2224.0099790651548
1.3932575309732018	3867.76940338072
1.3979017227431125	3726.1804005761333
1.4025613951522564	5281.779041909757
1.407236599802764	5268.295302565231
1.4119273884687735	6849.501196138666
1.4166338130970026	5392.63039314525
1.4213559258073263	5527.1359594587875
1.4260937788933508	7762.466485693017
1.4308474248229952	12974.088431544744
1.4356169162390722	17672.880363493667
1.4404023059598692	30560.243552646323
1.4452036469797356	43136.30883845935
1.450020992469668	66794.1860067373
1.4548543957779003	91541.0070727666
1.4597039104304934	115148.11294342938
1.4645695901319284	94819.93564098734
1.469451488765702	51810.420925522405
1.4743496603949209	29683.648955285826
1.479264159262904	33143.499185658744
1.4841950397937806	33787.41630313712
1.4891423565930935	33948.72422240263
1.4941061644484037	44658.68187364697
1.4990865183298985	71190.22312366203
1.5040834733909982	85425.68599115616
1.5090970849689684	79140.13939203684
1.5141274085855316	44403.61843097889
1.5191744999474837	71125.11844420331
1.5242384149473087	132195.06479279368
1.5293192096638	208905.73319984847
1.5344169403626793	262051.19477639053
1.5395316634972218	299991.1807420595
1.544663435708879	378518.8117581984
1.5498123138279087	506076.11586353777
1.554978354874002	681563.318588399
1.5601616160569156	841881.47433803
1.5653621547771055	1165536.895881031
1.5705800286263625	1574729.369293227
1.5758152953884506	1816367.474146897
1.5810680130397454	2056968.972574706
1.5863382397498782	2200002.470493544
1.5916260338823778	2287616.5506535503
1.5969314539953192	2167420.572584842
1.6022545588419705	1814211.7794737758
1.6075954073714436	1373479.6416609383
1.6129540587293487	940965.7200797544
1.6183305722584467	569747.1996034738
1.6237250074993084	328913.9080030981
1.6291374241909726	238597.41099759156
1.6345678822716092	184254.01883996642
1.6400164418791816	170295.7485357552
1.6454831633521123	213038.16655075998
1.6509681072299527	249571.7139714184
1.6564713342540527	296991.16390279256
1.6619929053682332	336571.5822460098
1.6675328817194608	162496.70235643984
1.6730913246585257	110394.79361158516
1.6786682957407209	205291.12487365765
1.6842638567265233	223807.84447582447
1.6898780695822784	149604.42857733232
1.6955109964808863	95169.84676078065
1.7011626998024894	83001.91208422727
1.7068332421351646	134690.0588950958
1.7125226862756153	172656.46195488135
1.7182310952298672	217097.05646913892
1.7239585322139668	211349.5197804173
1.7297050606546804	154777.86772531702
1.7354707441901962	138287.07193637398
1.7412556466708302	150224.33685487552
1.747059832159733	191122.70771050407
1.752883364933599	215878.7254415003
1.7587263094833776	174644.12568127987
1.7645887305149892	135796.40451516077
1.7704706929500391	97246.23730024757
1.7763722619265396	80221.10598988118
1.7822935027996283	71296.58067119504
1.7882344811422937	52438.254596894796
1.7941952627461015	29216.348414969903
1.8001759136219222	25094.27040511824
1.8061765000006618	15901.528093629244
1.8121970883339975	18262.882568729867
1.818237745295111	22643.902588716224
1.8242985377794283	27294.78384977123
1.8303795329053596	13266.84276650985
1.8364807980150446	7331.514019682014
1.8426024006750947	13037.97225474918
1.8487444086773455	20435.03601170241
1.8549068900396033	17918.72915541123
1.861089913006402	7193.044997750181
1.8672935460497566	3074.3811341193295
1.873517857869923	4386.260759799639
1.879762917396156	18259.61613946905
1.8860287937874767	32442.408164785782
1.8923155564334353	43228.42677369755
1.8986232749548801	39129.57784183543
1.9049520192047298	16791.9073191862
1.9113018592687456	13767.780710756968
1.9176728654663082	11763.337164363395
1.9240651083511964	12026.106971857904
1.9304786587123668	6038.841177940054
1.9369135875747419	2409.649566086777
1.9433699661999908	3154.0525777252465
1.9498478660873244	5997.128940197065
1.9563473589742824	9411.605093255488
1.9628685168375302	16668.310412241142
1.9694114118936552	25742.59324327331
1.9759761165999676	31013.592109474317
1.9825627036553009	38194.88159507253
1.9891712460008188	46461.486290492816
1.9958018168208218	54035.011267515016
2.002454489543558	56758.97867157124
2.0091293378420367	54910.26895048825
2.0158264356348434	51673.039738702595
2.02254585708696	46420.69621868244
2.029287676610583	68329.30636460903
2.036051968865952	78201.63832514499
2.042838808762172	89233.61312096348
2.049648271458046	104620.53109126714
2.0564804323629065	116589.40541752557
2.0633353671374497	127178.17386206254
2.0702131516945745	138270.64478074404
2.0771138622002234	137367.5559738394
2.084037575074224	138182.91116678595
2.0909843669911385	138611.12608531368
2.097954314881109	135921.09838766238
2.1049474959307126	136063.20759018307
2.1119639875838154	136950.06555851255
2.1190038675424283	133646.73179511476
2.12606721376757	129445.45502376961
2.1331541044801288	121964.74157276702
2.140264618161729	116577.4458724793
2.147398833555602	112354.48828074713
2.154556829667454	97555.20941366296
2.1617386857663456	84411.15053330433
2.1689444813855667	71612.6649538802
2.176174296323519	60431.342080682836
2.1834282106445975	54211.26958147065
2.19070630468008	35234.157406017446
2.1980086590290138	12746.197883429346
2.2053353545591103	9367.335410895434
2.2126864724076407	18828.918843086245
2.220062093982333	13852.214668715827
2.2274623009622747	10932.416491611444
2.2348871752988155	10010.462467127798
2.2423367992164787	6807.84059485499
2.2498112552138667	4499.799679114739
2.25731062606458	4567.116986690468
2.2648349948181288	2219.7045821149013
2.272384444800856	2403.9834506812485
2.2799590596168593	3754.1267153736403
2.2875589231489153	3886.463362103068
2.295184119559412	3401.207908653577
2.302834733291277	6999.861396624759
2.3105108490689146	13176.903806740467
2.3182125518991445	6818.713805591068
2.325939927072142	3436.708531419944
2.3336930601623824	3159.5955199556165
2.341472037029591	2302.6129122983866
2.3492769438196897	2471.7832230113495
2.3571078669657557	6360.523078496671
2.364964893188975	9502.313010909851
