#wavelength (micron)	surface_flux (erg / (cm2 micron s))
0.40133895199999997	0.30326313646550174
0.40267674850666674	0.2727080918688245
0.40401900433502225	0.04240673147659109
0.4053657343494724	0.045329684776903065
0.4067169534639707	0.41248208593374525
0.40807267664218394	1.899956484623473
0.4094329188976579	5.984568640290352
0.41079769529398347	14.989109296474776
0.41216702094496344	31.92196645579115
0.41354091101477997	59.96530970553613
0.4149193807181627	101.46065305569755
0.41630244532055655	154.94820131896589
0.41769012013829176	199.3693374436277
0.41908242053875283	157.5481502815829
0.4204793619405487	66.54620076133737
0.42188095981368384	172.52357941537207
0.42328722967972954	545.8598028696425
0.4246981871119953	933.8359581534185
0.42611384773570193	1268.3893138686917
0.4275342272281543	1617.0180683396227
0.4289593413189149	2001.9897340461625
0.43038920578997797	2430.79845477165
0.4318238364759446	2906.127178100186
0.43326324926419774	3440.565422710942
0.4347074600950785	4016.44106229227
0.4361564849620621	4641.594068540632
0.43761033991193565	5346.6756223870725
0.4390690410449755	6136.179618472811
0.44053260451512544	6979.043582571426
0.4420010465301759	7931.47286110937
0.44347438335194317	9002.949033867584
0.4449526312964497	10163.461396584731
0.44643580673410455	11313.89885404246
0.44792392608988496	12503.151711778874
0.4494170058435179	13829.588480366083
0.450915062529663	15211.3246837807
0.4524181127380953	16554.148961033992
0.45392617311388894	16980.61175720104
0.45543926035760196	14869.02802701649
0.45695739122546064	12109.549270107
0.4584805825295456	6795.191691473588
0.46000885113797746	4929.462225977256
0.46154221397510403	4311.478834947511
0.4630806880216877	3587.5574520131768
0.4646242903150934	2886.043153502088
0.4661730379494771	2315.4863779415523
0.4677269480759754	1833.3215966911341
0.4692860379028953	1369.2415689335894
0.47085032469590504	954.1038803669486
0.4724198257782247	628.2431510822123
0.47399455853081884	403.68446501409704
0.4755745403925883	263.8269943951359
0.4771597888605636	181.53161487017454
0.47875032149009894	133.63801639573634
0.4803461558950659	101.38261426508535
0.48194730974804956	77.6260358776463
0.48355380078054305	60.48316686323223
0.4851656467831449	48.474688558237766
0.48678286560575545	40.21687959301691
0.4884054751577746	34.304995777375616
0.4900334934083006	29.86021952926014
0.4916669383863283	26.142986401716453
0.4933058281809494	22.78484216614401
0.4949501809415526	19.749356378518076
0.4966000148780246	16.912405951252204
0.4982553482609513	14.130054403183575
0.4999161994218212	11.553545614797208
0.5015825867532273	9.429629596945972
0.5032545287090715	7.9397973961915875
0.5049320438047684	7.20993430083175
0.506615150617451	7.0431122471953165
0.5083038677861758	7.019959192311457
0.5099982140121297	7.049378225945205
0.5116982080588369	7.077437704022738
0.5134038687523664	7.103329189063925
0.515115214981541	7.168804277204704
0.5168322656981462	7.244685110890893
0.5185550399171401	7.343144140165875
0.5202835567168639	7.428001684107437
0.5220178352392535	7.500937531223385
0.5237578946900511	7.563711883324477
0.525503754339018	7.6341688838577
0.527255433520148	7.708839859816015
0.5290129516318819	7.789535488630035
0.5307763281373216	7.8842644216103315
0.532545582564446	7.996859604032895
0.5343207345063276	8.11787889710454
0.5361018036213486	8.241335483920533
0.5378888096334199	8.372739007935682
0.5396817723321979	8.491777705950058
0.5414807115733054	8.619801481925503
0.5432856472785497	8.80527219282277
0.545096599436145	8.965512364773883
0.5469135881009322	9.110056233478122
0.5487366333946019	9.328571372158706
0.5505657555059172	9.537403147306229
0.5524009746909371	9.7461586605034
0.5542423112732402	9.949910703783353
0.556089785644151	10.145498247859946
0.557943418262965	10.335115008509158
0.5598032296571749	10.506743612287023
0.5616692404226988	10.649851484877763
0.5635414712241079	10.769442379376583
0.5654199427948549	10.840069017626206
0.5673046759375044	10.755082727768189
0.569195691523963	10.649741733027676
0.5710930104957095	10.634091137755723
0.5729966538640286	10.475660549439537
0.5749066427102419	10.174859564055287
0.576822998185943	9.75639382109014
0.5787457415132294	9.27798404535382
0.5806748939849402	8.644512404261794
0.58261047696489	7.863587573434563
0.5845525118881064	6.773177594356223
0.5865010202610669	4.625352981013802
0.588456023661937	1.7653794866893866
0.5904175437408102	1.6787850334727858
0.5923856022199464	5.416641676273484
0.5943602208940129	9.853485780126569
0.5963414216303263	13.986012736385385
0.598329226369094	18.472543581997343
0.6003236571236578	23.78572575428032
0.6023247359807368	30.08103819301096
0.6043324851006725	37.4999315203413
0.6063469267176749	45.97998228773868
0.6083680831400672	55.30373826702341
0.610395976750534	65.8674588027475
0.6124306300063692	77.76028457035314
0.6144720654397238	91.3928674943628
0.6165203056578563	106.82429618844034
0.6185753733433824	124.54156791999509
0.6206372912545272	144.7615253277661
0.6227060822253756	167.67497858950733
0.6247817691661269	193.08802518235387
0.6268643750633474	220.69749325522602
0.6289539229802253	254.83444514103783
0.6310504360568261	294.80515416576566
0.6331539375103489	337.9180309510989
0.6352644506353834	391.4460204431311
0.6373819988041681	447.7833902064069
0.6395066054668487	509.79796554668644
0.6416382941517382	584.3754973031548
0.6437770884655775	660.782499120941
0.6459230120937961	726.2654510206365
0.6480760888007754	825.7520124368046
0.6502363424301114	966.8403326704305
0.6524037969048785	1107.9096802111096
0.6545784762278948	1266.2637600801113
0.6567604044819878	1433.6207098451875
0.6589496058302612	1640.9717720309684
0.6611461045163621	1875.9412175503214
0.66334992486475	2151.823647586091
0.6655610912809659	2449.074459766277
0.6677796282519025	2771.552441496301
0.6700055603460756	2967.566581082228
0.6722389122138959	3325.934652737192
0.6744797085879423	3895.3030111730695
0.6767279742832354	4283.268720653398
0.6789837341975129	4592.546656443303
0.6812470133115047	4789.854663761412
0.6835178366892097	4822.39620870168
0.6857962294781739	4649.513959575637
0.6880822169097679	4297.943991021619
0.6903758242994671	3795.0922679066366
0.6926770770471321	3218.2758952100694
0.6949860006372892	2980.8923865138213
0.6973026206394136	2978.00945536129
0.6996269627082117	2899.7024106368535
0.7019590525839058	2806.974844759918
0.7042989160925188	2872.6828170611607
0.7066465791461606	2994.9118131874548
0.7090020677433145	3093.2735852538362
0.7113654079691256	3155.1622186658615
0.7137366259956894	3161.989403064961
0.7161157480823418	2828.908184375733
0.7185028005759496	2569.660491518974
0.7208978099112028	2694.907978583989
0.7233008026109069	2763.8992585463225
0.7257118052862767	2623.0283427353606
0.728130844637231	2667.083228259639
0.7305579474526884	2601.152569863698
0.7329931406108642	2574.39199626866
0.7354364510795671	2564.0845154268113
0.7378879059164991	2709.3012707066655
0.7403475322695541	2882.384716180079
0.7428153573771193	3014.0109045673603
0.7452914085683765	3064.3594302966035
0.7477757132636044	3163.3420626425964
0.7502682989744831	3190.719774242507
0.7527691933043982	3197.015991702496
0.7552784239487462	3219.135827744496
0.7577960186952422	3215.823987875198
0.7603220054242263	3139.2196495727417
0.7628564121089738	2632.3929088858313
0.7653992668160038	1457.270737998524
0.7679505977053904	945.873149957285
0.7705104330310751	1359.8834334647654
0.7730788011411788	2406.418553049368
0.7756557304783162	3446.703998013546
0.7782412495799106	4117.877699615588
0.7808353870785104	4571.186135232698
0.7834381717021055	5455.763382869661
0.7860496322744459	6012.829832788231
0.7886697977153608	6786.856929211291
0.7912986970410787	7925.266757200186
0.793936359364549	8262.209430738483
0.7965828138957642	9157.683267620181
0.7992380899420836	11095.936274443642
0.8019022169085571	12702.461332194007
0.8045752242982523	14286.723687316313
0.80725714171258	15525.994843480994
0.809947998851622	15420.579015733858
0.8126478255144608	15005.006968540505
0.8153566515995091	14792.83727631522
0.8180745071048409	17985.419398857164
0.8208014221285237	23507.335048504185
0.8235374268689521	25682.480686083167
0.8262825516251822	30419.050309851253
0.8290368267972661	33078.4800732762
0.8318002828865904	35399.0104067109
0.8345729504962124	38004.197751553525
0.8373548603311998	41882.00634050011
0.8401460431989706	51027.4526414314
0.8429465300096338	56857.999382237875
0.8457563517763327	64428.91778944183
0.8485755396155872	72903.09001485058
0.8514041247476393	77523.64522209119
0.8542421384967981	87560.47837133982
0.8570896122917875	101897.65723711895
0.8599465776660935	113584.79889955319
0.8628130662583139	124988.09917985222
0.8656891098125085	136752.66809951272
0.8685747401785502	148424.7218738104
0.8714699893124788	160720.42509722814
0.8743748892768537	174743.3251746283
0.8772894722411099	189416.81435298745
0.8802137704819137	202279.63919515416
0.8831478163835201	211931.64996773913
0.8860916424381319	206402.6093878883
0.8890452812462591	173036.28148167164
0.89200876551708	139023.5641489966
0.8949821280688037	146723.42748522144
0.8979654018290332	153265.2501037068
0.90095861983513	173515.17681868948
0.9039618152345804	253762.25204618505
0.9069750212853626	265374.62208089756
0.9099982713563137	270811.83807162405
0.9130315989275016	320717.7381142086
0.9160750375905932	361212.84152246884
0.9191286210492287	412796.74141051696
0.9221923831193928	487236.89382157224
0.9252663577297908	426521.5719963467
0.9283505789222235	193612.6851991653
0.9314450808519644	66494.29001114603
0.9345498977881376	84893.91712263912
0.9376650641140981	173209.2836831723
0.940790614327812	310752.49875439267
0.9439265830422381	309060.16762228333
0.9470730049857122	266529.44763926783
0.9502299150023314	208024.45095100283
0.9533973480523392	234950.43619658845
0.9565753392125138	223550.30043140007
0.9597639236765556	230915.63255348787
0.9629631367554774	216406.53886011444
0.9661730138779958	373692.2524589893
0.9693935905909224	568075.140000255
0.972624902559559	685840.9477637567
0.9758669855680909	673190.3925818683
0.9791198755199847	769918.419338025
0.9823836084383848	861413.921697306
0.9856582204665127	990841.8201085164
0.9889437478680678	1205541.0869730639
0.9922402270276282	1311092.0620250825
0.9955476944510537	1407654.0565457414
0.9988661867658906	1311859.2194350024
1.002195740721777	1222908.4473495726
1.0055363931908496	1543646.1958020413
1.0088881811681525	1677057.2155865824
1.0122511417720463	1744883.4024048804
1.01562531224462	1618821.6535483093
1.019010729952102	1519270.8646158476
1.0224074323852759	1601219.2334503862
1.0258154571598936	1890882.7133438725
1.0292348420170931	2085492.0767381308
1.0326656248238169	2006165.1254533632
1.0361078435732296	1920331.1306905444
1.0395615363851405	2155875.966100394
1.0430267415064245	2496838.9561516927
1.0465034973114462	2684878.806663795
1.0499918423024843	2735548.8137472924
1.0534918151101593	2929361.891984506
1.05700345449386	3147801.438263579
1.0605267993421728	3247438.3744481183
1.0640618886733135	3282218.7481324463
1.067608761635558	3252167.512540748
1.0711674575076766	3232799.876618191
1.0747380156993689	3158671.8247055043
1.0783204757517002	3043536.4528080523
1.0819148773375393	2968438.598997005
1.085521260261998	2822061.665961202
1.0891396644628712	2564863.19357843
1.092770130011081	2098009.0860346896
1.0964126971111179	1540458.0714137426
1.1000674061014886	1180712.7537708052
1.10373429745516	799877.6201122926
1.1074134117800107	378813.58900597575
1.1111047898192774	165175.6771432337
1.1148084724520084	133530.83785730912
1.1185245006935154	138233.55063256
1.1222529156958272	165509.33346616424
1.1259937587481466	187045.9795793045
1.1297470712773072	211266.1130370305
1.1335128948482316	116348.90646726811
1.1372912711643925	187749.37972171805
1.1410822420682738	313581.2097405475
1.1448858495418348	200312.43213005716
1.1487021357069744	109303.08853082832
1.1525311428259977	84282.49154142781
1.1563729133020846	37368.48518994474
1.1602274896797582	42509.91219720095
1.1640949146453576	96071.06714427867
1.1679752310275089	168735.31445706487
1.1718684817976006	122233.04356485333
1.1757747100702594	108059.54157864531
1.1796939591038271	236888.15540460442
1.1836262723008397	308301.2772033344
1.1875716932085094	415923.9355570376
1.1915302655192046	499887.47803336097
1.1955020330709352	619002.3178493519
1.1994870398478386	871894.759646794
1.2034853299806647	1088624.7061149538
1.207496947747267	1141322.492297235
1.2115219375730912	1223632.2433161372
1.2155603440316685	1466294.3938728464
1.2196122118451074	1717157.1095442383
1.2236775858845912	1979274.4427244524
1.2277565111708733	2441646.9785287646
1.2318490328747762	2768992.8939661835
1.2359551963176922	3143744.769205564
1.2400750469720847	3692707.0187213183
1.2442086304619917	4216286.2065063575
1.248355992563532	4668108.395659561
1.2525171792054102	4952793.307331514
1.2566922364694284	5378171.361715439
1.2608812105909932	5944370.652222815
1.2650841479596302	6310696.333091402
1.2693010951194956	6451636.7107475195
1.273532098769894	6009972.778670507
1.2777772057657937	5202081.525988738
1.2820364631183463	4468496.826730837
1.2863099179954076	3586265.0063071405
1.2905976177220593	3021901.8729047836
1.2948996097811327	2826537.4500553296
1.2992159418137368	2635661.9775514835
1.3035466616197826	2279011.3643290927
1.3078918171585154	1912139.247659243
1.3122514565490437	1409930.207265977
1.3166256280708741	1309517.622796334
1.3210143801644436	1367443.3493588376
1.3254177614316587	1111498.3167982928
1.329835820636431	588776.8735439262
1.3342686067052192	198475.83363209918
1.33871616872757	58949.556815411794
1.343178555956662	12669.349809927964
1.347655817809851	4675.511018500805
1.352148003869217	3796.5416923762245
1.3566551638821147	1227.8079003219596
1.3611773477617217	452.0855643855272
1.3657146055875944	599.422556318811
1.3702669876062197	909.7481763876076
1.3748345442315741	3019.5440930966115
1.3794173260456792	4027.1858764324097
1.384015383799165	1274.7896035226765
1.388628768411829	2246.2568275367194
1.3932575309732018	4090.463652978671
1.3979017227431125	3732.252780657463
1.4025613951522564	5568.981141602006
1.407236599802764	5757.572633565853
1.4119273884687735	7581.728294424279
1.4166338130970026	5596.739910421344
1.4213559258073263	5585.985499589167
1.4260937788933508	7896.515694624227
1.4308474248229952	12547.419670976235
1.4356169162390722	17146.789077863363
1.4404023059598692	32338.825161535875
1.4452036469797356	44461.99663197184
1.450020992469668	62858.3326053338
1.4548543957779003	82303.53398959525
1.4597039104304934	99832.14418637229
1.4645695901319284	87452.55196228565
1.469451488765702	47534.616615543906
1.4743496603949209	23798.215964365518
1.479264159262904	26277.240747196123
1.4841950397937806	27039.833384170062
1.4891423565930935	27017.49724051217
1.4941061644484037	38055.31630679718
1.4990865183298985	65040.93446168024
1.5040834733909982	73736.63347075685
1.5090970849689684	70702.4926869057
1.5141274085855316	36994.599606546966
1.5191744999474837	60964.01848049175
1.5242384149473087	121414.14403591586
1.5293192096638	199827.27393152608
1.5344169403626793	248002.92780869117
1.5395316634972218	284238.08117397537
1.544663435708879	357005.79870081536
1.5498123138279087	492635.40508578275
1.554978354874002	687535.4826274149
1.5601616160569156	824574.5305974092
1.5653621547771055	1181130.1950931244
1.5705800286263625	1659402.0414244153
1.5758152953884506	1931612.940484772
1.5810680130397454	2208280.746785065
1.5863382397498782	2364818.8129384764
1.5916260338823778	2483161.179001705
1.5969314539953192	2314226.738050045
1.6022545588419705	1859165.5239182878
1.6075954073714436	1349848.9080519003
1.6129540587293487	887356.3574234543
1.6183305722584467	524186.15782520064
1.6237250074993084	301591.4562837412
1.6291374241909726	223548.27382924067
1.6345678822716092	171495.99641772587
1.6400164418791816	147776.6039482109
1.6454831633521123	192511.34972314746
1.6509681072299527	228736.98717344963
1.6564713342540527	274453.49339430535
1.6619929053682332	318156.65281155787
1.6675328817194608	153961.50445371636
1.6730913246585257	87144.71747345336
1.6786682957407209	176792.9669934096
1.6842638567265233	208315.55750995944
1.6898780695822784	135433.46085982386
1.6955109964808863	77042.52539814441
1.7011626998024894	68459.82295873766
1.7068332421351646	115837.15232082253
1.7125226862756153	150078.3573250976
1.7182310952298672	192660.27288314802
1.7239585322139668	187112.9918497398
1.7297050606546804	131506.7497366803
1.7354707441901962	118460.72183000659
1.7412556466708302	129341.9158979935
1.747059832159733	176116.98475335917
1.752883364933599	209573.37048247067
1.7587263094833776	167258.50374124132
1.7645887305149892	128941.44227256061
1.7704706929500391	90131.07192104266
1.7763722619265396	79650.39001004145
1.7822935027996283	73100.61385438564
1.7882344811422937	54708.147293813236
1.7941952627461015	31435.24203671951
1.8001759136219222	28224.28461585141
1.8061765000006618	16883.81922092093
1.8121970883339975	18507.128985701926
1.818237745295111	26714.677302462303
1.8242985377794283	34298.17657222668
1.8303795329053596	15641.832826883898
1.8364807980150446	8078.384488857169
1.8426024006750947	15193.185891351854
1.8487444086773455	24200.949928523994
1.8549068900396033	21273.75731290753
1.861089913006402	8101.316108653643
1.8672935460497566	3547.796095341617
1.873517857869923	5089.367544899911
1.879762917396156	21295.635867871984
1.8860287937874767	38412.146527647055
1.8923155564334353	50974.84128882123
1.8986232749548801	46557.32815294626
1.9049520192047298	20023.07076113421
1.9113018592687456	15921.448087901494
1.9176728654663082	12593.95114702886
1.9240651083511964	12851.649578148541
1.9304786587123668	6189.696906729671
1.9369135875747419	2177.561704915289
1.9433699661999908	3053.8469141237274
1.9498478660873244	5795.126393672218
1.9563473589742824	9317.535782914076
1.9628685168375302	17497.243571141906
1.9694114118936552	27765.446577667382
1.9759761165999676	34050.21633642893
1.9825627036553009	42349.07754662805
1.9891712460008188	52370.853101016255
1.9958018168208218	61079.08614439075
2.002454489543558	62857.91894948326
2.0091293378420367	60479.437054377624
2.0158264356348434	55917.243348671436
2.02254585708696	47870.4114586066
2.029287676610583	74628.89432455362
2.036051968865952	86593.67732117433
2.042838808762172	100861.0906141562
2.049648271458046	119763.4398036534
2.0564804323629065	135806.933849057
2.0633353671374497	153101.96044214323
2.0702131516945745	173259.65165899272
2.0771138622002234	171433.2757542368
2.084037575074224	173566.61287835508
2.0909843669911385	175330.26773850468
2.097954314881109	172329.71750700581
2.1049474959307126	174633.50154115492
2.1119639875838154	177201.8580062376
2.1190038675424283	171466.74160715772
2.12606721376757	164702.7469143514
2.1331541044801288	153302.8759815375
2.140264618161729	143655.882158928
2.147398833555602	136555.11624779613
2.154556829667454	115235.7145299922
2.1617386857663456	97121.85616895439
2.1689444813855667	82338.11018905744
2.176174296323519	68439.1105154268
2.1834282106445975	60280.26387168037
2.19070630468008	36531.79018177476
2.1980086590290138	11701.803468708737
2.2053353545591103	9203.123661162948
2.2126864724076407	19754.941893431198
2.220062093982333	14387.321727193697
2.2274623009622747	10903.569149068937
2.2348871752988155	9571.920680295128
2.2423367992164787	6197.736625804774
2.2498112552138667	4120.8522374302065
2.25731062606458	4149.138551971073
2.2648349948181288	1981.5415615483287
2.272384444800856	2209.8633021038977
2.2799590596168593	3636.155856171053
2.2875589231489153	3690.2200882328366
2.295184119559412	3276.6554079990415
2.302834733291277	7323.359917998798
2.3105108490689146	13740.58607043838
2.3182125518991445	6893.008375269498
2.325939927072142	3170.0166787960743
2.3336930601623824	2965.364392312222
2.341472037029591	1885.839347492359
2.3492769438196897	2261.8481449674673
2.3571078669657557	6421.180785153345
2.364964893188975	9500.260643903272
