#wavelength (micron)	surface_flux (erg / (cm2 micron s))
0.40133895199999997	1.065039155441884
0.40267674850666674	0.8291047538033386
0.40401900433502225	0.07549051358523233
0.4053657343494724	0.08291571946281687
0.4067169534639707	1.3316029168036099
0.40807267664218394	8.088294021179635
0.4094329188976579	28.088206829199894
0.41079769529398347	69.9303954560858
0.41216702094496344	141.42175011122677
0.41354091101477997	248.2647744951474
0.4149193807181627	389.9650535250617
0.41630244532055655	552.4141643362892
0.41769012013829176	671.5116578556415
0.41908242053875283	530.9474292099156
0.4204793619405487	201.89041540331004
0.42188095981368384	439.2556203365204
0.42328722967972954	1325.1572999057587
0.4246981871119953	2139.7182898154897
0.42611384773570193	2687.9579530757082
0.4275342272281543	3193.8416198780324
0.4289593413189149	3748.8016716878756
0.43038920578997797	4288.199094045914
0.4318238364759446	4808.119150887534
0.43326324926419774	5565.130413957698
0.4347074600950785	6199.83227972791
0.4361564849620621	6557.712591882359
0.43761033991193565	7061.1322995188775
0.4390690410449755	7810.210125398234
0.44053260451512544	8342.743478604318
0.4420010465301759	9316.949661266231
0.44347438335194317	10723.985218418813
0.4449526312964497	12069.602113818231
0.44643580673410455	12339.011316440165
0.44792392608988496	12701.697090761025
0.4494170058435179	13478.630567578843
0.450915062529663	14443.560968235168
0.4524181127380953	15630.005214196086
0.45392617311388894	16331.501866385934
0.45543926035760196	12480.830069574113
0.45695739122546064	11252.264159208333
0.4584805825295456	7833.852930371383
0.46000885113797746	5978.864894459446
0.46154221397510403	5764.008147572043
0.4630806880216877	4980.763467851227
0.4646242903150934	4103.473004812321
0.4661730379494771	3453.7920441260376
0.4677269480759754	2902.030654924642
0.4692860379028953	2312.488583888547
0.47085032469590504	1670.313620129297
0.4724198257782247	1095.5227460054841
0.47399455853081884	675.58851553719
0.4755745403925883	408.0126387911038
0.4771597888605636	247.69354241942094
0.47875032149009894	155.20479432911833
0.4803461558950659	96.20103471375286
0.48194730974804956	57.363706536060846
0.48355380078054305	33.804635215876615
0.4851656467831449	20.457042396049527
0.48678286560575545	13.292593034961138
0.4884054751577746	9.293524881139824
0.4900334934083006	6.796532371967338
0.4916669383863283	5.113049221015037
0.4933058281809494	3.9231090634977948
0.4949501809415526	3.077484532819049
0.4966000148780246	2.450056617476576
0.4982553482609513	1.933135551816013
0.4999161994218212	1.5361804663940788
0.5015825867532273	1.2577339279154733
0.5032545287090715	1.090421570198428
0.5049320438047684	1.0152871548877183
0.506615150617451	1.0343478268978643
0.5083038677861758	1.0667299283868372
0.5099982140121297	1.0937405176817065
0.5116982080588369	1.1156870559453276
0.5134038687523664	1.1573054027087712
0.515115214981541	1.1979637956542664
0.5168322656981462	1.2332276374489937
0.5185550399171401	1.293352320501989
0.5202835567168639	1.3438846523722383
0.5220178352392535	1.3888558405772988
0.5237578946900511	1.4341714805467451
0.525503754339018	1.4825767421412006
0.527255433520148	1.5311766424932207
0.5290129516318819	1.5828565280405131
0.5307763281373216	1.6395585830896136
0.532545582564446	1.6988022313968167
0.5343207345063276	1.7600510450455125
0.5361018036213486	1.8190961221980209
0.5378888096334199	1.8845088277354587
0.5396817723321979	1.959572759496265
0.5414807115733054	2.028834208319972
0.5432856472785497	2.10310193720227
0.545096599436145	2.145227468925846
0.5469135881009322	2.185917919363181
0.5487366333946019	2.304711371962707
0.5505657555059172	2.4075796606116806
0.5524009746909371	2.5004462447109983
0.5542423112732402	2.5795385534393107
0.556089785644151	2.662530489508024
0.557943418262965	2.7424886374923245
0.5598032296571749	2.8132782074822456
0.5616692404226988	2.8764418689862974
0.5635414712241079	2.933125796761637
0.5654199427948549	2.9726715301645132
0.5673046759375044	2.9534466813659352
0.569195691523963	2.8981413921322385
0.5710930104957095	2.9005986383304654
0.5729966538640286	2.942503403837472
0.5749066427102419	2.884721257023323
0.576822998185943	2.7726880720923575
0.5787457415132294	2.670317163512211
0.5806748939849402	2.503938810134285
0.58261047696489	2.2815601708322073
0.5845525118881064	1.969862591384232
0.5865010202610669	1.3291028949753412
0.588456023661937	0.4922111559907667
0.5904175437408102	0.45976353938098574
0.5923856022199464	1.5186876652919343
0.5943602208940129	2.895399470960023
0.5963414216303263	4.258326452224981
0.598329226369094	5.666629898778995
0.6003236571236578	7.313481911636187
0.6023247359807368	9.222936916350845
0.6043324851006725	11.416412596292815
0.6063469267176749	14.027037161440834
0.6083680831400672	17.042142827140687
0.610395976750534	20.30873203309413
0.6124306300063692	23.9168933847599
0.6144720654397238	28.04236439879948
0.6165203056578563	32.60556001831389
0.6185753733433824	37.78386713295428
0.6206372912545272	43.52338186827049
0.6227060822253756	49.9608695428316
0.6247817691661269	57.20929406931761
0.6268643750633474	64.45622901228872
0.6289539229802253	72.92308516868114
0.6310504360568261	83.82411078277927
0.6331539375103489	94.2843728343697
0.6352644506353834	107.21865301022112
0.6373819988041681	118.88494011265945
0.6395066054668487	128.69537797573685
0.6416382941517382	149.02623887852374
0.6437770884655775	164.54940143764642
0.6459230120937961	163.08708822723844
0.6480760888007754	184.32950573656552
0.6502363424301114	233.44430883585545
0.6524037969048785	274.59768850847877
0.6545784762278948	304.4506340139708
0.6567604044819878	343.84977499124125
0.6589496058302612	394.0496082967629
0.6611461045163621	442.47326393627566
0.66334992486475	502.54327292846136
0.6655610912809659	566.7300492491748
0.6677796282519025	650.1315470807709
0.6700055603460756	715.9555653076893
0.6722389122138959	817.8143679377188
0.6744797085879423	955.1273027460801
0.6767279742832354	1064.0642410183996
0.6789837341975129	1171.4288905010426
0.6812470133115047	1280.8469011830753
0.6835178366892097	1362.773472017746
0.6857962294781739	1400.1619057598732
0.6880822169097679	1396.7722908945782
0.6903758242994671	1309.267191766347
0.6926770770471321	1146.9772062369934
0.6949860006372892	1162.0713582687558
0.6973026206394136	1266.9414885152114
0.6996269627082117	1245.476153830911
0.7019590525839058	1149.7973745071288
0.7042989160925188	1287.6434764060489
0.7066465791461606	1437.8076721461996
0.7090020677433145	1452.785496825571
0.7113654079691256	1515.7906922360335
0.7137366259956894	1568.3233949752157
0.7161157480823418	1388.7136099089905
0.7185028005759496	1242.153345390384
0.7208978099112028	1313.1057992714432
0.7233008026109069	1432.5717170830926
0.7257118052862767	1459.4659314138023
0.728130844637231	1540.8038519767906
0.7305579474526884	1426.6430975500969
0.7329931406108642	1306.4182845528685
0.7354364510795671	1282.61425525607
0.7378879059164991	1429.3935140657484
0.7403475322695541	1616.021267980518
0.7428153573771193	1667.144139324118
0.7452914085683765	1757.6627779916014
0.7477757132636044	1793.7738732844189
0.7502682989744831	1738.4225674210443
0.7527691933043982	1717.0153810984054
0.7552784239487462	1652.2709518274503
0.7577960186952422	1586.0761699409727
0.7603220054242263	1465.7158531769956
0.7628564121089738	1086.203734530217
0.7653992668160038	442.01886559487207
0.7679505977053904	179.46559744138756
0.7705104330310751	343.95212399542174
0.7730788011411788	944.5163850637946
0.7756557304783162	1626.279663296018
0.7782412495799106	2077.2825430662115
0.7808353870785104	2441.978231172389
0.7834381717021055	3095.0748901090806
0.7860496322744459	3622.74071366328
0.7886697977153608	4190.499379715316
0.7912986970410787	4839.53734505707
0.793936359364549	5037.511688556523
0.7965828138957642	5601.5541317222605
0.7992380899420836	6684.173558424724
0.8019022169085571	7789.476602546739
0.8045752242982523	8829.563608070785
0.80725714171258	9511.33352776331
0.809947998851622	9442.188729096748
0.8126478255144608	8925.72779456746
0.8153566515995091	8164.4357220728025
0.8180745071048409	10041.352854099092
0.8208014221285237	14633.958989966997
0.8235374268689521	16279.524634470008
0.8262825516251822	18528.54767916712
0.8290368267972661	19274.180919862454
0.8318002828865904	20442.33981423873
0.8345729504962124	19474.687841634874
0.8373548603311998	21031.269315758946
0.8401460431989706	27478.257087212474
0.8429465300096338	29843.113763592733
0.8457563517763327	33222.80424492478
0.8485755396155872	37374.16152365841
0.8514041247476393	39511.41294703737
0.8542421384967981	46826.04267218403
0.8570896122917875	56643.39129889301
0.8599465776660935	64182.18117009702
0.8628130662583139	71392.6261296161
0.8656891098125085	78130.79681097067
0.8685747401785502	84309.13686345733
0.8714699893124788	90345.95749585988
0.8743748892768537	100287.23612487767
0.8772894722411099	110091.02418604847
0.8802137704819137	113925.07720408349
0.8831478163835201	112180.63942889457
0.8860916424381319	91857.40635526636
0.8890452812462591	52706.289781920146
0.89200876551708	26655.25887982482
0.8949821280688037	43179.43102734958
0.8979654018290332	54805.361509842856
0.90095861983513	49687.78800319118
0.9039618152345804	82659.57193815071
0.9069750212853626	101549.47323323718
0.9099982713563137	131955.79210887075
0.9130315989275016	151767.84379947648
0.9160750375905932	145230.79095561194
0.9191286210492287	205143.6265883306
0.9221923831193928	313563.17502048414
0.9252663577297908	292477.6166679545
0.9283505789222235	138054.31037682135
0.9314450808519644	85245.38841174256
0.9345498977881376	72075.37855999106
0.9376650641140981	74430.53121479717
0.940790614327812	175801.99232920367
0.9439265830422381	265778.3150729583
0.9470730049857122	240233.45287350132
0.9502299150023314	131424.1574676531
0.9533973480523392	122839.01457895164
0.9565753392125138	137510.77227225783
0.9597639236765556	151273.61790621036
0.9629631367554774	105722.9069551729
0.9661730138779958	155758.80700424258
0.9693935905909224	266411.8729024318
0.972624902559559	302464.9688435463
0.9758669855680909	320702.615711317
0.9791198755199847	342178.45927812066
0.9823836084383848	285308.7199399349
0.9856582204665127	422097.32417129766
0.9889437478680678	533776.9568669522
0.9922402270276282	474772.13666529895
0.9955476944510537	357270.8445799321
0.9988661867658906	401437.04530821514
1.002195740721777	393662.6123161821
1.0055363931908496	493366.2563157373
1.0088881811681525	645448.0235738344
1.0122511417720463	901487.0331433092
1.01562531224462	883489.1412776157
1.019010729952102	880446.2013038641
1.0224074323852759	965740.6003956322
1.0258154571598936	1239917.4874505943
1.0292348420170931	1535428.9118253565
1.0326656248238169	1544531.0253291891
1.0361078435732296	1493875.7992942054
1.0395615363851405	2034975.215910218
1.0430267415064245	2792780.332930261
1.0465034973114462	2878553.9139748407
1.0499918423024843	2716448.797265771
1.0534918151101593	3363988.183340397
1.05700345449386	4188749.3561378145
1.0605267993421728	4657297.956350327
1.0640618886733135	4886020.58286088
1.067608761635558	4854214.110600002
1.0711674575076766	4700923.857479909
1.0747380156993689	4242594.767869616
1.0783204757517002	3395910.047806086
1.0819148773375393	3450728.7871947647
1.085521260261998	3243809.806203532
1.0891396644628712	2791454.0538258716
1.092770130011081	1779642.1338114596
1.0964126971111179	879534.946993396
1.1000674061014886	757812.3332586982
1.10373429745516	775036.7661400544
1.1074134117800107	319027.61516558466
1.1111047898192774	133993.43938959
1.1148084724520084	78267.74622989119
1.1185245006935154	46147.513723056014
1.1222529156958272	65622.66374787108
1.1259937587481466	81868.28611986207
1.1297470712773072	82202.52963917004
1.1335128948482316	37436.07885997673
1.1372912711643925	39601.5498271802
1.1410822420682738	80956.61148624736
1.1448858495418348	81079.13047725987
1.1487021357069744	38535.0944017027
1.1525311428259977	10937.881900366825
1.1563729133020846	2578.2665480254987
1.1602274896797582	2214.2147583368974
1.1640949146453576	14104.30730844589
1.1679752310275089	38332.85049271845
1.1718684817976006	21439.384065349186
1.1757747100702594	6185.6255054265075
1.1796939591038271	19916.015536694107
1.1836262723008397	30248.698507791647
1.1875716932085094	45615.60479761487
1.1915302655192046	51104.97583514353
1.1955020330709352	85397.93719871211
1.1994870398478386	222031.6954210841
1.2034853299806647	373555.89972184657
1.207496947747267	432626.7449287025
1.2115219375730912	537100.1862709944
1.2155603440316685	617202.5582599364
1.2196122118451074	864515.674593389
1.2236775858845912	1333814.1838133927
1.2277565111708733	2127876.1582255666
1.2318490328747762	2903412.507606504
1.2359551963176922	3064899.213961137
1.2400750469720847	3785799.118555835
1.2442086304619917	5482976.81781907
1.248355992563532	6228559.924797414
1.2525171792054102	6248525.147581056
1.2566922364694284	7425573.534728021
1.2608812105909932	7813610.58719835
1.2650841479596302	7261256.673860668
1.2693010951194956	6993953.150638585
1.273532098769894	7701529.479023125
1.2777772057657937	6993322.918983503
1.2820364631183463	5264795.65178583
1.2863099179954076	3274882.371316078
1.2905976177220593	3098884.3311617076
1.2948996097811327	2515503.882814119
1.2992159418137368	1995541.803456402
1.3035466616197826	1489622.5499153184
1.3078918171585154	969703.4408720275
1.3122514565490437	372950.39205039083
1.3166256280708741	421885.43824231427
1.3210143801644436	473159.3261044127
1.3254177614316587	350283.21189853846
1.329835820636431	148978.7339640771
1.3342686067052192	47452.277181383884
1.33871616872757	24816.872636866585
1.343178555956662	13327.549568936074
1.347655817809851	4966.5011995252
1.352148003869217	3247.606028937225
1.3566551638821147	2245.285230694052
1.3611773477617217	809.4166321433039
1.3657146055875944	754.2572926233645
1.3702669876062197	1310.5055038328865
1.3748345442315741	1938.1319313466324
1.3794173260456792	2472.4323709662503
1.384015383799165	1370.552159332338
1.388628768411829	977.6898390731748
1.3932575309732018	1199.8726219956307
1.3979017227431125	1596.2082524740713
1.4025613951522564	3791.9268138614643
1.407236599802764	4331.697999222755
1.4119273884687735	5089.19383078553
1.4166338130970026	3651.99539906018
1.4213559258073263	3537.2873636519084
1.4260937788933508	7965.919064880822
1.4308474248229952	10514.351099365591
1.4356169162390722	10477.866370609403
1.4404023059598692	24496.314182659742
1.4452036469797356	35234.22181565895
1.450020992469668	22843.29099424549
1.4548543957779003	22628.631388614333
1.4597039104304934	27764.55515396762
1.4645695901319284	43710.54105838131
1.469451488765702	29851.032940161553
1.4743496603949209	9282.39928895891
1.479264159262904	14393.192628167288
1.4841950397937806	17270.5301292328
1.4891423565930935	19147.639076557032
1.4941061644484037	38584.42492615064
1.4990865183298985	83746.6830609575
1.5040834733909982	77325.24105425885
1.5090970849689684	121571.3010361993
1.5141274085855316	92830.14335264491
1.5191744999474837	99217.25750992031
1.5242384149473087	147003.1331494057
1.5293192096638	220122.14640455975
1.5344169403626793	170004.7765721984
1.5395316634972218	210558.30644941312
1.544663435708879	317669.65256263874
1.5498123138279087	452689.34958625404
1.554978354874002	784102.5235064772
1.5601616160569156	701536.489181016
1.5653621547771055	809111.2822585932
1.5705800286263625	1415739.9549843566
1.5758152953884506	1877030.7763930012
1.5810680130397454	2034371.2490758789
1.5863382397498782	1857479.8471382917
1.5916260338823778	1982574.5435309857
1.5969314539953192	1503100.7419548072
1.6022545588419705	771707.0717652657
1.6075954073714436	396154.3506521567
1.6129540587293487	210681.1472871751
1.6183305722584467	122924.70782902915
1.6237250074993084	71273.15556392551
1.6291374241909726	66452.32816888927
1.6345678822716092	55113.06841677625
1.6400164418791816	26361.310179640575
1.6454831633521123	42148.47885882073
1.6509681072299527	69211.94122970624
1.6564713342540527	76743.60129946671
1.6619929053682332	69493.78500740453
1.6675328817194608	34963.81249523068
1.6730913246585257	7787.57715132869
1.6786682957407209	22984.104221367706
1.6842638567265233	38819.24017594531
1.6898780695822784	29479.337881692743
1.6955109964808863	9645.13555242739
1.7011626998024894	13725.124902718471
1.7068332421351646	32656.642704124548
1.7125226862756153	32282.876162929373
1.7182310952298672	31808.708621134836
1.7239585322139668	27431.17570944484
1.7297050606546804	16822.29605104266
1.7354707441901962	24447.70205560561
1.7412556466708302	25705.51344270282
1.747059832159733	42795.25675698083
1.752883364933599	65262.69078783314
1.7587263094833776	41930.0443667765
1.7645887305149892	25361.56391335161
1.7704706929500391	25596.58359807601
1.7763722619265396	56231.97772763104
1.7822935027996283	56762.37542065161
1.7882344811422937	43840.29052553218
1.7941952627461015	22339.866860883354
1.8001759136219222	16977.912069640388
1.8061765000006618	24620.147194559282
1.8121970883339975	32839.64839913455
1.818237745295111	43574.92475272398
1.8242985377794283	60597.869547802795
1.8303795329053596	24539.36671438076
1.8364807980150446	8522.889135597165
1.8426024006750947	22866.435727260137
1.8487444086773455	43746.90548007158
1.8549068900396033	44194.724283089716
1.861089913006402	19231.905782821865
1.8672935460497566	13531.811850071374
1.873517857869923	17404.1002510334
1.879762917396156	49464.09834699302
1.8860287937874767	83794.39635983358
1.8923155564334353	113658.56202168827
1.8986232749548801	96308.78928514346
1.9049520192047298	46105.39634135043
1.9113018592687456	50410.643541685386
1.9176728654663082	20994.14546535158
1.9240651083511964	13556.72875102941
1.9304786587123668	9153.547633913702
1.9369135875747419	6478.343056104877
1.9433699661999908	14390.702104726794
1.9498478660873244	7336.906793787937
1.9563473589742824	6813.1200813570795
1.9628685168375302	26744.015574501496
1.9694114118936552	49738.195860030006
1.9759761165999676	72781.81695359541
1.9825627036553009	91010.81522706595
1.9891712460008188	117629.60491629555
1.9958018168208218	119597.60846357842
2.002454489543558	119502.41389564503
2.0091293378420367	133011.82803596987
2.0158264356348434	110786.44499009862
2.02254585708696	65236.99819417541
2.029287676610583	89593.46510844171
2.036051968865952	150762.55949421847
2.042838808762172	186249.01509534448
2.049648271458046	186741.75446939867
2.0564804323629065	242039.27868761556
2.0633353671374497	370657.2699410294
2.0702131516945745	557494.240080157
2.0771138622002234	495670.4721501891
2.084037575074224	395736.79155714536
2.0909843669911385	363226.3759195591
2.097954314881109	377916.3374565077
2.1049474959307126	466329.4534532135
2.1119639875838154	484437.6615380685
2.1190038675424283	375139.44425067457
2.12606721376757	349748.0999168397
2.1331541044801288	346397.2958796298
2.140264618161729	278927.42040529643
2.147398833555602	194265.2387174649
2.154556829667454	167894.3476412418
2.1617386857663456	133692.32455495856
2.1689444813855667	119813.39306542616
2.176174296323519	115252.5635648697
2.1834282106445975	89265.16809125501
2.19070630468008	35597.132841793566
2.1980086590290138	5644.795209776323
2.2053353545591103	5827.368013235972
2.2126864724076407	15772.953690712648
2.220062093982333	12993.213859702886
2.2274623009622747	5274.660029081267
2.2348871752988155	2489.5303499903275
2.2423367992164787	2435.718890429176
2.2498112552138667	1919.9575944017063
2.25731062606458	1554.4734610442476
2.2648349948181288	1545.3364930692212
2.272384444800856	1557.2087784710434
2.2799590596168593	2752.0740907169575
2.2875589231489153	2331.8484908377673
2.295184119559412	1511.5127629173667
2.302834733291277	4630.884700923646
2.3105108490689146	8083.520351434162
2.3182125518991445	3714.7257904006246
2.325939927072142	1179.1059056851652
2.3336930601623824	1225.4663360321981
2.341472037029591	565.9932515454503
2.3492769438196897	811.662276218079
2.3571078669657557	4352.6197651866305
2.364964893188975	6173.994999955965
