#wavelength (micron)	surface_flux (erg / (cm2 micron s))
0.40133895199999997	0.010922547012560737
0.40267674850666674	0.011952702034862085
0.40401900433502225	0.003726702242908879
0.4053657343494724	0.004156373293450538
0.4067169534639707	0.01847395930585295
0.40807267664218394	0.057428938608375384
0.4094329188976579	0.13357017495575793
0.41079769529398347	0.2559234567983391
0.41216702094496344	0.4305756529840807
0.41354091101477997	0.663540421304152
0.4149193807181627	0.9564007407374194
0.41630244532055655	1.3006006398416072
0.41769012013829176	1.6362099254543732
0.41908242053875283	1.7392871134162227
0.4204793619405487	1.7452225085779942
0.42188095981368384	2.495518539835308
0.42328722967972954	3.8925614077093034
0.4246981871119953	5.34405504952507
0.42611384773570193	6.77175058464396
0.4275342272281543	8.311171063774976
0.4289593413189149	10.020994033893285
0.43038920578997797	11.940818155954998
0.4318238364759446	14.10589815960392
0.43326324926419774	16.544535516777064
0.4347074600950785	19.285460549275882
0.4361564849620621	22.358614372424256
0.43761033991193565	25.794262999609973
0.4390690410449755	29.61692541084569
0.44053260451512544	33.87783566679594
0.4420010465301759	38.5470079826357
0.44347438335194317	43.817779269294284
0.4449526312964497	49.80721449746693
0.44643580673410455	56.38135414808798
0.44792392608988496	63.68628270035768
0.4494170058435179	71.79899458482421
0.450915062529663	80.70364716609085
0.4524181127380953	90.2112815156959
0.45392617311388894	100.1212763807015
0.45543926035760196	110.56096481565746
0.45695739122546064	110.56650374574998
0.4584805825295456	102.21574898329236
0.46000885113797746	103.45271626536902
0.46154221397510403	105.44445415799883
0.4630806880216877	105.47193860953038
0.4646242903150934	103.61434136353644
0.4661730379494771	100.62027727153331
0.4677269480759754	96.37606493767288
0.4692860379028953	89.9041032700187
0.47085032469590504	81.51708281044402
0.4724198257782247	72.06261564806806
0.47399455853081884	62.59033728348079
0.4755745403925883	54.10393322044765
0.4771597888605636	47.175441089574534
0.47875032149009894	41.85682879985438
0.4803461558950659	37.06784465124768
0.48194730974804956	32.56168626669104
0.48355380078054305	28.621603079262876
0.4851656467831449	25.43360244642336
0.48678286560575545	23.068145294493583
0.4884054751577746	21.25021263399224
0.4900334934083006	19.789007134075852
0.4916669383863283	18.45422865246775
0.4933058281809494	17.12093971739992
0.4949501809415526	15.783839279490143
0.4966000148780246	14.373920703193138
0.4982553482609513	12.761622152590908
0.4999161994218212	11.078093216897958
0.5015825867532273	9.479205087304749
0.5032545287090715	8.186816353304355
0.5049320438047684	7.621815203300131
0.506615150617451	7.550385716418142
0.5083038677861758	7.531511371157951
0.5099982140121297	7.566780355494971
0.5116982080588369	7.589096512575293
0.5134038687523664	7.632559822996896
0.515115214981541	7.741785496521524
0.5168322656981462	7.9017321669598175
0.5185550399171401	8.084478732254903
0.5202835567168639	8.243381640836828
0.5220178352392535	8.367126969719214
0.5237578946900511	8.450404578805024
0.525503754339018	8.547668717952316
0.527255433520148	8.636937847086203
0.5290129516318819	8.711849438265062
0.5307763281373216	8.787125151527736
0.532545582564446	8.88211000927091
0.5343207345063276	8.982911648466514
0.5361018036213486	9.06279440534835
0.5378888096334199	9.123411681469618
0.5396817723321979	9.128929070974488
0.5414807115733054	9.156158715547456
0.5432856472785497	9.331496734673832
0.545096599436145	9.466555708401145
0.5469135881009322	9.567039209613636
0.5487366333946019	9.757693122300699
0.5505657555059172	9.93544411112821
0.5524009746909371	10.122964253724911
0.5542423112732402	10.300121871238087
0.556089785644151	10.449442867522013
0.557943418262965	10.57887724833435
0.5598032296571749	10.67539967293761
0.5616692404226988	10.73831322237652
0.5635414712241079	10.77888470936114
0.5654199427948549	10.75516767005589
0.5673046759375044	10.498861308427033
0.569195691523963	10.248823405152008
0.5710930104957095	10.29466059146934
0.5729966538640286	10.142202565470859
0.5749066427102419	9.876675197543475
0.576822998185943	9.553774473601822
0.5787457415132294	9.16940133319476
0.5806748939849402	8.628490325496715
0.58261047696489	7.9170202226261415
0.5845525118881064	6.878237219110254
0.5865010202610669	4.789810993012081
0.588456023661937	1.8988675979609766
0.5904175437408102	1.820650506262047
0.5923856022199464	5.569678513500839
0.5943602208940129	9.620994668129864
0.5963414216303263	13.334689187183727
0.598329226369094	17.41621220135186
0.6003236571236578	22.31380332072184
0.6023247359807368	28.36209034891411
0.6043324851006725	35.83764260034234
0.6063469267176749	44.82947107001268
0.6083680831400672	55.005048823372114
0.610395976750534	66.69101965098602
0.6124306300063692	80.15372391891795
0.6144720654397238	95.60347174575968
0.6165203056578563	113.12013205671097
0.6185753733433824	133.23596536236946
0.6206372912545272	156.0823908579348
0.6227060822253756	181.48257517179695
0.6247817691661269	207.73464435512545
0.6268643750633474	235.59492297208376
0.6289539229802253	275.0640527448553
0.6310504360568261	320.7641185075817
0.6331539375103489	366.7264819479348
0.6352644506353834	424.53049650243304
0.6373819988041681	484.3630626447829
0.6395066054668487	550.4798423555462
0.6416382941517382	627.0903958479861
0.6437770884655775	696.2883076975835
0.6459230120937961	742.9559501496516
0.6480760888007754	832.456154197756
0.6502363424301114	978.5517804316594
0.6524037969048785	1111.351180374711
0.6545784762278948	1266.6178619376246
0.6567604044819878	1416.0173543157905
0.6589496058302612	1614.0116047432562
0.6611461045163621	1853.4577003872328
0.66334992486475	2118.5476005609075
0.6655610912809659	2400.6148876967723
0.6677796282519025	2683.5240110783807
0.6700055603460756	2901.018401908948
0.6722389122138959	3222.9381680023034
0.6744797085879423	3677.652006103434
0.6767279742832354	4032.717048114218
0.6789837341975129	4282.321837138244
0.6812470133115047	4402.084276232029
0.6835178366892097	4364.537247242095
0.6857962294781739	4161.052927409112
0.6880822169097679	3793.6093155326976
0.6903758242994671	3196.5895795661945
0.6926770770471321	2477.7708387199414
0.6949860006372892	2267.447843782093
0.6973026206394136	2337.908099613484
0.6996269627082117	2213.849663293043
0.7019590525839058	2066.2019479698533
0.7042989160925188	2078.6149909151027
0.7066465791461606	2158.822673785166
0.7090020677433145	2230.263011607625
0.7113654079691256	2248.5679108796344
0.7137366259956894	2149.71258793162
0.7161157480823418	1572.566238796633
0.7185028005759496	1153.1812825361974
0.7208978099112028	1433.9184024980766
0.7233008026109069	1533.9987499177803
0.7257118052862767	1347.467809618153
0.728130844637231	1383.5591962047065
0.7305579474526884	1353.5793812500242
0.7329931406108642	1441.2645995314654
0.7354364510795671	1534.7903262646753
0.7378879059164991	1670.4734102167836
0.7403475322695541	1829.2266949901395
0.7428153573771193	1987.694679773918
0.7452914085683765	2108.1099251470387
0.7477757132636044	2235.63383442087
0.7502682989744831	2324.65204583484
0.7527691933043982	2367.8426525825316
0.7552784239487462	2385.537784797643
0.7577960186952422	2366.315043000159
0.7603220054242263	2314.442963411829
0.7628564121089738	2026.2650612149441
0.7653992668160038	1312.9255512938687
0.7679505977053904	1000.4796834325007
0.7705104330310751	1316.732605581781
0.7730788011411788	2026.1663399215288
0.7756557304783162	2674.8610968509156
0.7782412495799106	3138.4732908034566
0.7808353870785104	3512.655213250246
0.7834381717021055	4071.0578184754677
0.7860496322744459	4442.985495852238
0.7886697977153608	4945.661842804045
0.7912986970410787	5793.34732873632
0.793936359364549	6209.0381442109665
0.7965828138957642	6696.352388881225
0.7992380899420836	7971.784179544835
0.8019022169085571	9171.385153741066
0.8045752242982523	10244.48456210503
0.80725714171258	10578.09637145944
0.809947998851622	9324.156991762526
0.8126478255144608	7562.453165379708
0.8153566515995091	6805.319988313688
0.8180745071048409	9556.627709923401
0.8208014221285237	12967.176816406603
0.8235374268689521	13187.387840120258
0.8262825516251822	16792.137829582392
0.8290368267972661	18057.797582310042
0.8318002828865904	18568.773774713965
0.8345729504962124	19795.076103433123
0.8373548603311998	22526.33689761455
0.8401460431989706	28168.20139106473
0.8429465300096338	33177.923355697734
0.8457563517763327	38970.95726693892
0.8485755396155872	44687.30418022151
0.8514041247476393	49384.343014553604
0.8542421384967981	55713.35685900032
0.8570896122917875	63652.33578577649
0.8599465776660935	70817.86026888821
0.8628130662583139	77180.80326802905
0.8656891098125085	82701.97241770731
0.8685747401785502	86570.4750468421
0.8714699893124788	90219.71781431678
0.8743748892768537	94825.74979361781
0.8772894722411099	98587.1929179984
0.8802137704819137	99133.05208457085
0.8831478163835201	95694.90201156039
0.8860916424381319	77163.63091599557
0.8890452812462591	43530.495459073296
0.89200876551708	20773.098628954493
0.8949821280688037	18820.046818349554
0.8979654018290332	16873.71504397026
0.90095861983513	22284.6862162006
0.9039618152345804	48314.55687647991
0.9069750212853626	53584.23517368137
0.9099982713563137	50658.783369090575
0.9130315989275016	59868.57514240223
0.9160750375905932	66901.94611831763
0.9191286210492287	82110.44152225237
0.9221923831193928	98454.21972013154
0.9252663577297908	66134.79658672292
0.9283505789222235	16823.00480539024
0.9314450808519644	682.7716475371229
0.9345498977881376	767.5032936507934
0.9376650641140981	6051.060826214494
0.940790614327812	14479.743211530587
0.9439265830422381	8423.645695149145
0.9470730049857122	3591.401006243864
0.9502299150023314	3819.5256175587733
0.9533973480523392	5189.089389514186
0.9565753392125138	4817.237639984166
0.9597639236765556	5754.889384445325
0.9629631367554774	8027.925227870076
0.9661730138779958	20450.34539169492
0.9693935905909224	42234.6470020125
0.972624902559559	57659.12467283084
0.9758669855680909	59258.99371844962
0.9791198755199847	74522.1689170618
0.9823836084383848	91157.54257205967
0.9856582204665127	113947.25678697036
0.9889437478680678	149630.5939799072
0.9922402270276282	174591.03031605066
0.9955476944510537	189863.9980154812
0.9988661867658906	170268.13025292804
1.002195740721777	111404.07226444426
1.0055363931908496	103875.66612326006
1.0088881811681525	94257.47756990095
1.0122511417720463	83886.78347515094
1.01562531224462	60890.49219430499
1.019010729952102	41870.0677730775
1.0224074323852759	37225.19517586024
1.0258154571598936	43530.683548435154
1.0292348420170931	48745.06176882972
1.0326656248238169	38666.96069185095
1.0361078435732296	32124.754233424304
1.0395615363851405	39127.943841224864
1.0430267415064245	46790.94065529903
1.0465034973114462	50516.09090809943
1.0499918423024843	51206.49182207836
1.0534918151101593	54103.29253696902
1.05700345449386	55926.757284746855
1.0605267993421728	53986.86589824472
1.0640618886733135	50099.22112433849
1.067608761635558	44951.65067028762
1.0711674575076766	39971.01614240902
1.0747380156993689	35776.87095975066
1.0783204757517002	32002.140843442
1.0819148773375393	28597.232967511038
1.085521260261998	25464.721700977854
1.0891396644628712	22480.748460288654
1.092770130011081	18632.17769829325
1.0964126971111179	14030.023172684829
1.1000674061014886	9946.719391682544
1.10373429745516	5913.371204020746
1.1074134117800107	2695.207971095988
1.1111047898192774	958.8072200848321
1.1148084724520084	392.7590476999654
1.1185245006935154	222.46072372176755
1.1222529156958272	215.5318386872631
1.1259937587481466	276.93751880271714
1.1297470712773072	464.41577046772005
1.1335128948482316	380.41845326652157
1.1372912711643925	755.2945573822623
1.1410822420682738	1439.04402240646
1.1448858495418348	814.9041731401271
1.1487021357069744	331.2058878466153
1.1525311428259977	259.55601453485434
1.1563729133020846	109.92981066607885
1.1602274896797582	112.86610403413799
1.1640949146453576	343.75650844508226
1.1679752310275089	783.1228041675882
1.1718684817976006	540.9637275460188
1.1757747100702594	648.6726860627773
1.1796939591038271	1557.3189917587029
1.1836262723008397	1909.6576823123482
1.1875716932085094	2236.871480418036
1.1915302655192046	2747.9727738781094
1.1955020330709352	3342.8370931757336
1.1994870398478386	4198.157072895058
1.2034853299806647	5041.272736605792
1.207496947747267	5365.499205312539
1.2115219375730912	5840.189347100304
1.2155603440316685	7079.50000147855
1.2196122118451074	8413.969594033813
1.2236775858845912	10379.731741006013
1.2277565111708733	14356.83722362313
1.2318490328747762	17695.596784157926
1.2359551963176922	22010.56241538763
1.2400750469720847	28781.840803974403
1.2442086304619917	37251.152328883254
1.248355992563532	44889.02619326764
1.2525171792054102	48164.129047804265
1.2566922364694284	55287.904590658974
1.2608812105909932	70866.38982098381
1.2650841479596302	88438.34953127985
1.2693010951194956	100704.31271817737
1.273532098769894	96418.7484977617
1.2777772057657937	83852.6361120249
1.2820364631183463	69456.92294492185
1.2863099179954076	53506.29175528499
1.2905976177220593	43146.97803772275
1.2948996097811327	39707.902632885314
1.2992159418137368	37085.9965453389
1.3035466616197826	31433.481990415232
1.3078918171585154	27934.015236358115
1.3122514565490437	21914.8816799923
1.3166256280708741	17724.186934526115
1.3210143801644436	17647.9502679041
1.3254177614316587	16885.047089497606
1.329835820636431	9190.172004333117
1.3342686067052192	2973.6825528750746
1.33871616872757	1032.0811620006375
1.343178555956662	110.00392286342598
1.347655817809851	13.753493791772438
1.352148003869217	5.590677781289885
1.3566551638821147	0.7560262011123284
1.3611773477617217	0.15803904263449461
1.3657146055875944	0.22864166490157994
1.3702669876062197	0.37980892247106496
1.3748345442315741	2.500608365187287
1.3794173260456792	3.4110707585592626
1.384015383799165	0.8020670505044013
1.388628768411829	2.8556873166857413
1.3932575309732018	4.739258672015246
1.3979017227431125	6.871536232319636
1.4025613951522564	11.141969097684969
1.407236599802764	9.700549772620231
1.4119273884687735	14.2421490290836
1.4166338130970026	13.601657688514972
1.4213559258073263	17.78130209827467
1.4260937788933508	31.19692707650159
1.4308474248229952	60.03202336845831
1.4356169162390722	93.20648481257282
1.4404023059598692	157.19828697111674
1.4452036469797356	303.53546579999494
1.450020992469668	758.762696473184
1.4548543957779003	1563.8328392241042
1.4597039104304934	2199.6925391352493
1.4645695901319284	1278.4479821425714
1.469451488765702	467.9659782733586
1.4743496603949209	203.71614170870515
1.479264159262904	191.45459848103414
1.4841950397937806	154.08706463484378
1.4891423565930935	129.5618370237152
1.4941061644484037	155.36511330205062
1.4990865183298985	247.52585770631384
1.5040834733909982	405.2804129108117
1.5090970849689684	374.764008754839
1.5141274085855316	124.39285589561429
1.5191744999474837	307.87092615030434
1.5242384149473087	722.2948672745841
1.5293192096638	1389.1484263863688
1.5344169403626793	1770.6616355241279
1.5395316634972218	2198.6785752394617
1.544663435708879	3686.060184066492
1.5498123138279087	6534.540075971364
1.554978354874002	11803.974853838969
1.5601616160569156	20275.657404867325
1.5653621547771055	35083.78835808285
1.5705800286263625	55034.410985408715
1.5758152953884506	70703.64437094967
1.5810680130397454	85495.86664504607
1.5863382397498782	96403.24800377681
1.5916260338823778	104018.97162675177
1.5969314539953192	102260.63337462049
1.6022545588419705	87206.53184015906
1.6075954073714436	63557.16505027413
1.6129540587293487	38795.667206387945
1.6183305722584467	18764.77328110437
1.6237250074993084	7476.6592275544335
1.6291374241909726	3305.7027034181265
1.6345678822716092	2028.1877822731542
1.6400164418791816	1635.2059710718202
1.6454831633521123	1783.1354590260403
1.6509681072299527	1950.6533221719149
1.6564713342540527	3430.1106071785794
1.6619929053682332	5190.861011941857
1.6675328817194608	2236.2969510215303
1.6730913246585257	1709.5704239537117
1.6786682957407209	3123.265331854078
1.6842638567265233	3129.330355540834
1.6898780695822784	1834.1628797041276
1.6955109964808863	1007.5371580628833
1.7011626998024894	712.4132763173739
1.7068332421351646	1461.6097240226525
1.7125226862756153	2180.073988032396
1.7182310952298672	3012.58272027639
1.7239585322139668	2537.4997842554612
1.7297050606546804	1417.044493384464
1.7354707441901962	1436.0860674664584
1.7412556466708302	2085.403403228356
1.747059832159733	3084.7999451814608
1.752883364933599	3707.888709280774
1.7587263094833776	3090.351054913006
1.7645887305149892	2373.176941389481
1.7704706929500391	1757.0684184414156
1.7763722619265396	1425.3030956769098
1.7822935027996283	1206.6117999813948
1.7882344811422937	636.126825460976
1.7941952627461015	293.0342635530486
1.8001759136219222	252.96162887969157
1.8061765000006618	123.70141241921017
1.8121970883339975	106.69344420971171
1.818237745295111	88.62060034025532
1.8242985377794283	119.39042762699196
1.8303795329053596	52.24238572473316
1.8364807980150446	17.853065198410462
1.8426024006750947	40.64169924821384
1.8487444086773455	60.8041316098903
1.8549068900396033	45.279993271694934
1.861089913006402	27.080551467586144
1.8672935460497566	12.85093857124409
1.873517857869923	7.069027662329575
1.879762917396156	59.1143097301278
1.8860287937874767	133.5686323999659
1.8923155564334353	166.32629906119908
1.8986232749548801	131.25111942274197
1.9049520192047298	43.24522121196042
1.9113018592687456	39.51628234636655
1.9176728654663082	40.26700292145277
1.9240651083511964	47.51271421828505
1.9304786587123668	21.672177325919684
1.9369135875747419	8.103426924085245
1.9433699661999908	6.7214339390119635
1.9498478660873244	12.751280330551621
1.9563473589742824	33.59974535930398
1.9628685168375302	82.8164530263649
1.9694114118936552	125.27570278662361
1.9759761165999676	131.7028145093378
1.9825627036553009	146.52010815306923
1.9891712460008188	201.67672316425003
1.9958018168208218	250.85706562244778
2.002454489543558	255.9735676130097
2.0091293378420367	225.1102179543014
2.0158264356348434	220.23232795063814
2.02254585708696	232.10717015639017
2.029287676610583	369.2822682816735
2.036051968865952	432.5495232713897
2.042838808762172	479.49642598495757
2.049648271458046	552.106824170414
2.0564804323629065	588.3048231145746
2.0633353671374497	590.0345392385094
2.0702131516945745	578.2112866236708
2.0771138622002234	538.6831895142586
2.084037575074224	502.17544529113405
2.0909843669911385	470.0214313104457
2.097954314881109	437.01527362839454
2.1049474959307126	419.8996811673998
2.1119639875838154	418.5095819428898
2.1190038675424283	420.65275213946427
2.12606721376757	430.51074755650916
2.1331541044801288	433.758981787337
2.140264618161729	447.7978481374628
2.147398833555602	458.5245049826512
2.154556829667454	422.02029049992836
2.1617386857663456	378.59213567182053
2.1689444813855667	339.4315627508325
2.176174296323519	313.4531655888488
2.1834282106445975	284.52766134213084
2.19070630468008	187.07135640157787
2.1980086590290138	63.700592234318
2.2053353545591103	29.76239800415123
2.2126864724076407	51.87218224001465
2.220062093982333	31.422377644721603
2.2274623009622747	25.849085574200775
2.2348871752988155	22.841534619799724
2.2423367992164787	16.11574801920979
2.2498112552138667	9.516246098730571
2.25731062606458	8.204053382182279
2.2648349948181288	2.6433611708989058
2.272384444800856	3.1523791769183034
2.2799590596168593	6.7495708783723725
2.2875589231489153	5.489321039997873
2.295184119559412	4.0273067955785535
2.302834733291277	8.632710507274915
2.3105108490689146	24.3246084990104
2.3182125518991445	15.542167161837172
2.325939927072142	6.713214601786025
2.3336930601623824	5.326228077481063
2.341472037029591	6.676104220338518
2.3492769438196897	4.9749331218811905
2.3571078669657557	14.421569416449971
2.364964893188975	25.910086795421687
2.372848109499605	12.678402402728686
