#wavelength (micron)	surface_flux (erg / (cm2 micron s))
0.40133895199999997	6.344035980905405
0.40267674850666674	5.1848625910935
0.40401900433502225	0.6066545508300508
0.4053657343494724	0.6368343528498712
0.4067169534639707	7.828474099738357
0.40807267664218394	45.309183481352505
0.4094329188976579	164.24344827439043
0.41079769529398347	440.12995342506014
0.41216702094496344	962.4407850246896
0.41354091101477997	1818.8362450628051
0.4149193807181627	3059.873090960337
0.41630244532055655	4599.461259138254
0.41769012013829176	5830.299182454925
0.41908242053875283	4581.988641287868
0.4204793619405487	1848.5411177850722
0.42188095981368384	4508.754436183284
0.42328722967972954	13541.186740124967
0.4246981871119953	22092.951391158498
0.42611384773570193	28566.02559090149
0.4275342272281543	34720.945555541024
0.4289593413189149	41436.00595054159
0.43038920578997797	48522.58807452235
0.4318238364759446	55404.00269493248
0.43326324926419774	63503.01236346199
0.4347074600950785	69136.39748646079
0.4361564849620621	74571.17809270942
0.43761033991193565	82347.34003753377
0.4390690410449755	92080.67998910652
0.44053260451512544	99956.66224186421
0.4420010465301759	110456.77479609085
0.44347438335194317	123717.51155876512
0.4449526312964497	137364.41850648815
0.44643580673410455	144365.66391522478
0.44792392608988496	150090.72129138577
0.4494170058435179	159716.86909494712
0.450915062529663	168429.24543598408
0.4524181127380953	176503.4279442178
0.45392617311388894	184726.03360464293
0.45543926035760196	162732.21954387848
0.45695739122546064	136461.3934567486
0.4584805825295456	89006.8181735576
0.46000885113797746	70399.39570803224
0.46154221397510403	63251.43615028234
0.4630806880216877	53244.65812758965
0.4646242903150934	43167.23626303868
0.4661730379494771	35905.596630482156
0.4677269480759754	28888.307598679054
0.4692860379028953	21604.25737183142
0.47085032469590504	14845.135926981344
0.4724198257782247	9252.861552519806
0.47399455853081884	5322.098420233759
0.4755745403925883	2950.6243594960924
0.4771597888605636	1651.3294235877627
0.47875032149009894	971.6189255707754
0.4803461558950659	594.3709604747431
0.48194730974804956	376.03685272080736
0.48355380078054305	252.16930106778275
0.4851656467831449	182.51163344503686
0.48678286560575545	142.10498805139878
0.4884054751577746	116.56372656776362
0.4900334934083006	99.0118122807632
0.4916669383863283	85.13911475289225
0.4933058281809494	73.1005870981186
0.4949501809415526	62.53072582744358
0.4966000148780246	52.882852498671156
0.4982553482609513	43.6454410789776
0.4999161994218212	35.1523234341975
0.5015825867532273	28.199549697725224
0.5032545287090715	23.377391024241582
0.5049320438047684	20.821475153603895
0.506615150617451	19.945166892015628
0.5083038677861758	19.672696781707398
0.5099982140121297	19.542727114041632
0.5116982080588369	19.364946439427314
0.5134038687523664	19.175239732877195
0.515115214981541	19.082957637059344
0.5168322656981462	19.02501466443384
0.5185550399171401	18.990741830960147
0.5202835567168639	18.91249754024468
0.5220178352392535	18.80739088870092
0.5237578946900511	18.688688928809572
0.525503754339018	18.577329966568207
0.527255433520148	18.474893918315313
0.5290129516318819	18.39273873477882
0.5307763281373216	18.349390342574484
0.532545582564446	18.345195291669985
0.5343207345063276	18.359824427227938
0.5361018036213486	18.39121837563267
0.5378888096334199	18.44973385735104
0.5396817723321979	18.49794305578465
0.5414807115733054	18.556406618984173
0.5432856472785497	18.685764836602203
0.545096599436145	18.775203670120984
0.5469135881009322	18.845777384549326
0.5487366333946019	19.018524087982424
0.5505657555059172	19.16570777932792
0.5524009746909371	19.31342798375852
0.5542423112732402	19.449336317026
0.556089785644151	19.56233152129711
0.557943418262965	19.66395526843837
0.5598032296571749	19.733249313504448
0.5616692404226988	19.751762752765874
0.5635414712241079	19.728701977697796
0.5654199427948549	19.638174155689114
0.5673046759375044	19.34775047871471
0.569195691523963	19.041011488715267
0.5710930104957095	18.807569485955916
0.5729966538640286	18.384216284463818
0.5749066427102419	17.780080511337047
0.576822998185943	17.005063607093472
0.5787457415132294	16.12032465339373
0.5806748939849402	14.971085917945322
0.58261047696489	13.551299253756925
0.5845525118881064	11.594119745451753
0.5865010202610669	7.9362742167420715
0.588456023661937	3.1180913911403967
0.5904175437408102	2.977177698802063
0.5923856022199464	9.289947275597427
0.5943602208940129	16.862977368827504
0.5963414216303263	24.053452654932666
0.598329226369094	31.861075334232055
0.6003236571236578	40.941829009495166
0.6023247359807368	51.65300189399045
0.6043324851006725	64.34529317355629
0.6063469267176749	79.09645019094285
0.6083680831400672	95.99233852169242
0.610395976750534	115.63542964698127
0.6124306300063692	138.28899113384753
0.6144720654397238	164.7601345512809
0.6165203056578563	195.32818471870175
0.6185753733433824	230.8769027543183
0.6206372912545272	272.0057671467833
0.6227060822253756	319.3656665741103
0.6247817691661269	373.37808248477035
0.6268643750633474	434.13347490686766
0.6289539229802253	507.13017999295016
0.6310504360568261	592.810826724867
0.6331539375103489	689.2269024786049
0.6352644506353834	805.7404977471828
0.6373819988041681	934.067308148722
0.6395066054668487	1078.4347695011213
0.6416382941517382	1250.0151505862211
0.6437770884655775	1435.6674083892854
0.6459230120937961	1619.266778341429
0.6480760888007754	1861.534490676065
0.6502363424301114	2172.3548738952522
0.6524037969048785	2500.9384385810663
0.6545784762278948	2867.0460596817484
0.6567604044819878	3270.184755590961
0.6589496058302612	3748.13924261249
0.6611461045163621	4281.0062694717
0.66334992486475	4893.312484858485
0.6655610912809659	5561.473320324273
0.6677796282519025	6278.529692545823
0.6700055603460756	6735.536267428811
0.6722389122138959	7547.517343262113
0.6744797085879423	8822.4687095661
0.6767279742832354	9733.895381481463
0.6789837341975129	10519.687183733984
0.6812470133115047	11110.04788306498
0.6835178366892097	11381.204964713103
0.6857962294781739	11221.950628347695
0.6880822169097679	10646.013502103915
0.6903758242994671	9731.311619037027
0.6926770770471321	8646.481722783994
0.6949860006372892	8035.78281400777
0.6973026206394136	7842.013434597858
0.6996269627082117	7659.071998210611
0.7019590525839058	7545.513052659407
0.7042989160925188	7723.332809551412
0.7066465791461606	8001.9225135449105
0.7090020677433145	8235.288057746373
0.7113654079691256	8415.609918745304
0.7137366259956894	8493.253150632518
0.7161157480823418	8066.920968430025
0.7185028005759496	7675.111964998536
0.7208978099112028	7710.032463281032
0.7233008026109069	7664.686657877691
0.7257118052862767	7299.765361139021
0.728130844637231	7166.267975824879
0.7305579474526884	6830.900304511237
0.7329931406108642	6544.288753640686
0.7354364510795671	6307.308558863071
0.7378879059164991	6313.63421154565
0.7403475322695541	6360.964789315638
0.7428153573771193	6321.256545727473
0.7452914085683765	6172.46895535496
0.7477757132636044	6079.730945156534
0.7502682989744831	5872.994938364427
0.7527691933043982	5654.221782476891
0.7552784239487462	5454.288188442679
0.7577960186952422	5238.679203358494
0.7603220054242263	4926.888141330829
0.7628564121089738	3948.296554220493
0.7653992668160038	2051.7571587806515
0.7679505977053904	1227.5941006080807
0.7705104330310751	1843.6393901700026
0.7730788011411788	3471.064985682757
0.7756557304783162	5081.818242467024
0.7782412495799106	6287.40494407515
0.7808353870785104	7351.522103300115
0.7834381717021055	9294.765889896778
0.7860496322744459	10864.74199752057
0.7886697977153608	12804.615769990754
0.7912986970410787	15187.596709416388
0.793936359364549	15838.38208699234
0.7965828138957642	18470.058479616386
0.7992380899420836	23856.573407237607
0.8019022169085571	28187.35389865336
0.8045752242982523	32612.760474332506
0.80725714171258	36908.97501577841
0.809947998851622	39718.539332044216
0.8126478255144608	42372.29260246509
0.8153566515995091	45073.726183644016
0.8180745071048409	53092.340182393375
0.8208014221285237	65917.29429442494
0.8235374268689521	74025.66500569486
0.8262825516251822	85948.55743186883
0.8290368267972661	95058.35641217246
0.8318002828865904	104368.03431433499
0.8345729504962124	114286.43901292811
0.8373548603311998	126498.08448619027
0.8401460431989706	148050.08371098072
0.8429465300096338	164499.29095475716
0.8457563517763327	184497.52007348428
0.8485755396155872	205746.92665601036
0.8514041247476393	214017.70759401235
0.8542421384967981	241846.64101468667
0.8570896122917875	284661.9872523338
0.8599465776660935	316728.05585201376
0.8628130662583139	349183.9233626123
0.8656891098125085	383763.01954099163
0.8685747401785502	420036.7292953233
0.8714699893124788	459038.8645631139
0.8743748892768537	502632.90114095714
0.8772894722411099	549288.5156093873
0.8802137704819137	595258.114322149
0.8831478163835201	638151.0445813615
0.8860916424381319	660244.4157904737
0.8890452812462591	637279.0118988835
0.89200876551708	585870.3401593504
0.8949821280688037	595777.862455813
0.8979654018290332	679219.0411150217
0.90095861983513	777180.6612079378
0.9039618152345804	981013.541952259
0.9069750212853626	1052974.7618621686
0.9099982713563137	1111841.7559343495
0.9130315989275016	1253735.3510959786
0.9160750375905932	1383231.4728952574
0.9191286210492287	1533852.3599299158
0.9221923831193928	1732248.531775877
0.9252663577297908	1629152.9136850943
0.9283505789222235	953282.8715023287
0.9314450808519644	612195.5768453927
0.9345498977881376	779417.7906872621
0.9376650641140981	1119576.5620128573
0.940790614327812	1680965.0283951438
0.9439265830422381	1810746.6321343721
0.9470730049857122	1713982.2152219974
0.9502299150023314	1454087.5502358286
0.9533973480523392	1571108.485992553
0.9565753392125138	1516055.1834058382
0.9597639236765556	1582676.9088359089
0.9629631367554774	1528280.1854927274
0.9661730138779958	2077805.7547955143
0.9693935905909224	2742744.621799475
0.972624902559559	3213987.966616213
0.9758669855680909	3314691.452402152
0.9791198755199847	3709678.15382711
0.9823836084383848	4102678.594128845
0.9856582204665127	4601088.607391364
0.9889437478680678	5313820.655347175
0.9922402270276282	5676054.008898995
0.9955476944510537	6006679.9497055095
0.9988661867658906	5584288.466964849
1.002195740721777	5332843.643628811
1.0055363931908496	6791735.61251984
1.0088881811681525	7460689.323185811
1.0122511417720463	7944005.371163844
1.01562531224462	7996211.867493043
1.019010729952102	8155617.966723124
1.0224074323852759	8660538.483092489
1.0258154571598936	9618198.95970927
1.0292348420170931	10401153.642505707
1.0326656248238169	10576816.339180056
1.0361078435732296	10711432.396808382
1.0395615363851405	11404202.491309207
1.0430267415064245	12281995.370112581
1.0465034973114462	12821700.888695326
1.0499918423024843	13080910.157266788
1.0534918151101593	13627144.492013639
1.05700345449386	14213166.536531925
1.0605267993421728	14608972.059646273
1.0640618886733135	14855876.56607548
1.067608761635558	14909567.250416445
1.0711674575076766	15001861.148319807
1.0747380156993689	14908543.156535497
1.0783204757517002	14689475.390760627
1.0819148773375393	14634178.205614533
1.085521260261998	14174208.851191068
1.0891396644628712	13020853.595036883
1.092770130011081	10928570.724821348
1.0964126971111179	8582535.95567304
1.1000674061014886	7084811.905359972
1.10373429745516	5342814.470143595
1.1074134117800107	3041352.704821843
1.1111047898192774	1677807.9691951415
1.1148084724520084	1609550.7414622323
1.1185245006935154	1773489.2689238312
1.1222529156958272	2037027.429575038
1.1259937587481466	2318348.2416222137
1.1297470712773072	2557740.159832986
1.1335128948482316	1415734.928184084
1.1372912711643925	1882715.1043070417
1.1410822420682738	2818833.252611171
1.1448858495418348	2071718.59455336
1.1487021357069744	1548384.3697318367
1.1525311428259977	1296793.7457361042
1.1563729133020846	763841.3451066668
1.1602274896797582	884956.3348835317
1.1640949146453576	1436271.7029155511
1.1679752310275089	1897296.8251551979
1.1718684817976006	1592948.166375161
1.1757747100702594	1552610.8954263048
1.1796939591038271	2648150.048767272
1.1836262723008397	3272581.78711727
1.1875716932085094	4361688.732584357
1.1915302655192046	5144013.638518651
1.1955020330709352	5985275.419050371
1.1994870398478386	7677102.20736462
1.2034853299806647	9142636.21197805
1.207496947747267	9665511.03894495
1.2115219375730912	10302820.855341658
1.2155603440316685	11783370.679136327
1.2196122118451074	13233216.426090991
1.2236775858845912	14643809.927673949
1.2277565111708733	16524119.816180578
1.2318490328747762	17842053.67211483
1.2359551963176922	19120309.14159424
1.2400750469720847	20818028.392006323
1.2442086304619917	22392289.795537062
1.248355992563532	23890217.979577407
1.2525171792054102	25055360.411245406
1.2566922364694284	26509172.775591474
1.2608812105909932	27827945.89127965
1.2650841479596302	28271579.138078637
1.2693010951194956	28277231.012192875
1.273532098769894	27286024.16406634
1.2777772057657937	25304386.710460346
1.2820364631183463	23242451.25777953
1.2863099179954076	20186671.772761576
1.2905976177220593	18216690.499504957
1.2948996097811327	17430046.710528746
1.2992159418137368	16522627.226080958
1.3035466616197826	14887012.998722747
1.3078918171585154	12993204.685616292
1.3122514565490437	10548330.03403687
1.3166256280708741	9983114.63686885
1.3210143801644436	9995691.550132127
1.3254177614316587	7803826.447084389
1.329835820636431	4460105.966746161
1.3342686067052192	1693838.6990636687
1.33871616872757	514462.42479042325
1.343178555956662	163758.19654784194
1.347655817809851	95521.21879136142
1.352148003869217	82740.30980167318
1.3566551638821147	34607.82562047072
1.3611773477617217	20215.847273904797
1.3657146055875944	28479.89075088294
1.3702669876062197	41813.92603349788
1.3748345442315741	93975.7765909624
1.3794173260456792	115996.20787804744
1.384015383799165	50269.8138160008
1.388628768411829	62899.41195124539
1.3932575309732018	105514.1279470247
1.3979017227431125	88721.20307314584
1.4025613951522564	109572.2127525563
1.407236599802764	119832.95439046538
1.4119273884687735	146088.0382721728
1.4166338130970026	110169.4928189441
1.4213559258073263	103706.11050950555
1.4260937788933508	132836.6982720842
1.4308474248229952	194201.33925246666
1.4356169162390722	257120.38795025417
1.4404023059598692	392091.3120699176
1.4452036469797356	476684.57467763347
1.450020992469668	638715.7244543494
1.4548543957779003	784063.554541712
1.4597039104304934	898780.2959328636
1.4645695901319284	921637.5645089865
1.469451488765702	619556.1033118586
1.4743496603949209	472285.11866377323
1.479264159262904	531794.6090600415
1.4841950397937806	582604.6099270994
1.4891423565930935	636014.7878816081
1.4941061644484037	774544.6254608541
1.4990865183298985	1191337.6797688995
1.5040834733909982	1387144.1871880705
1.5090970849689684	1507419.6701473785
1.5141274085855316	1277415.306844874
1.5191744999474837	1570360.9625275438
1.5242384149473087	2249970.035655571
1.5293192096638	3037347.8084376766
1.5344169403626793	3617958.9380832575
1.5395316634972218	4058670.4969298174
1.544663435708879	4543850.4220713
1.5498123138279087	5388936.289827636
1.554978354874002	6540596.121010737
1.5601616160569156	7037463.376750077
1.5653621547771055	8225808.24199464
1.5705800286263625	9679767.289425327
1.5758152953884506	10411305.651634274
1.5810680130397454	11049594.281704603
1.5863382397498782	11196288.367822932
1.5916260338823778	11088823.59533986
1.5969314539953192	10218335.363180222
1.6022545588419705	8462436.245211132
1.6075954073714436	6584125.087999908
1.6129540587293487	4869610.61618684
1.6183305722584467	3427225.1008718032
1.6237250074993084	2364301.2214457723
1.6291374241909726	2038783.1396648583
1.6345678822716092	1646570.7866592403
1.6400164418791816	1633025.1945922088
1.6454831633521123	2139566.8798982482
1.6509681072299527	2458724.514935862
1.6564713342540527	2543997.3084756113
1.6619929053682332	2527570.9374236288
1.6675328817194608	1376471.8588805692
1.6730913246585257	965436.514991118
1.6786682957407209	1622119.315732924
1.6842638567265233	1784623.0781284873
1.6898780695822784	1288440.9843909198
1.6955109964808863	952928.7608884725
1.7011626998024894	913145.4813356617
1.7068332421351646	1303601.6567468017
1.7125226862756153	1559906.838463764
1.7182310952298672	1764821.7562566989
1.7239585322139668	1721460.1190047949
1.7297050606546804	1447336.7316495026
1.7354707441901962	1295207.3439196371
1.7412556466708302	1252553.1582071157
1.747059832159733	1437235.0523549612
1.752883364933599	1606208.8639637846
1.7587263094833776	1373486.146908617
1.7645887305149892	1090398.8537983669
1.7704706929500391	767844.5880132102
1.7763722619265396	663793.8499768684
1.7822935027996283	624062.9068231538
1.7882344811422937	534163.137838231
1.7941952627461015	317163.0922192258
1.8001759136219222	268327.4187825483
1.8061765000006618	200973.0484856636
1.8121970883339975	265070.23636733874
1.818237745295111	342213.2606443607
1.8242985377794283	357633.4187056752
1.8303795329053596	187043.6956536978
1.8364807980150446	146576.33260706344
1.8426024006750947	208636.50684383445
1.8487444086773455	284756.80264862307
1.8549068900396033	270431.8395235013
1.861089913006402	121456.88666910456
1.8672935460497566	74382.74348015564
1.873517857869923	134570.07438174196
1.879762917396156	306783.3056868936
1.8860287937874767	459777.1559692389
1.8923155564334353	625314.0607164825
1.8986232749548801	584652.5682939679
1.9049520192047298	319939.53981536574
1.9113018592687456	287696.6758135478
1.9176728654663082	231569.42560065616
1.9240651083511964	215063.81559825776
1.9304786587123668	135276.84686005232
1.9369135875747419	70879.77188225635
1.9433699661999908	103470.30655208445
1.9498478660873244	149187.97575254546
1.9563473589742824	174518.4310666389
1.9628685168375302	250136.6471310704
1.9694114118936552	351532.2658981106
1.9759761165999676	432100.20995441196
1.9825627036553009	550787.4480195375
1.9891712460008188	646984.9155333576
1.9958018168208218	711898.8038484006
2.002454489543558	744152.0075487379
2.0091293378420367	765473.8423731325
2.0158264356348434	760155.5151330669
2.02254585708696	674245.6348853849
2.029287676610583	867055.3852630574
2.036051968865952	1011351.184637904
2.042838808762172	1126479.6478302411
2.049648271458046	1239428.3370405883
2.0564804323629065	1365359.2203830206
2.0633353671374497	1518711.8545945974
2.0702131516945745	1675455.3784496563
2.0771138622002234	1652521.395256799
2.084037575074224	1668548.07942449
2.0909843669911385	1688371.082010964
2.097954314881109	1673539.0118158115
2.1049474959307126	1686046.412858007
2.1119639875838154	1687735.5159586105
2.1190038675424283	1636548.6732936564
2.12606721376757	1573272.4952085658
2.1331541044801288	1485013.3290155183
2.140264618161729	1412607.3991943155
2.147398833555602	1337080.5994830346
2.154556829667454	1154622.6313551075
2.1617386857663456	1023387.6770759017
2.1689444813855667	879822.2948193843
2.176174296323519	739743.0507404893
2.1834282106445975	660821.9954917193
2.19070630468008	447813.7800049149
2.1980086590290138	194707.44521505726
2.2053353545591103	156468.66451242365
2.2126864724076407	290629.40867769934
2.220062093982333	249668.34170012994
2.2274623009622747	196998.5901702427
2.2348871752988155	179985.67936986536
2.2423367992164787	139025.6136390072
2.2498112552138667	102952.77737618926
2.25731062606458	106768.77434682807
2.2648349948181288	71642.96718417064
2.272384444800856	67673.14289546135
2.2799590596168593	82822.17168238407
2.2875589231489153	96476.47725563208
2.295184119559412	91907.8569068124
2.302834733291277	153089.757561989
2.3105108490689146	241832.0465119797
2.3182125518991445	127406.14507527501
2.325939927072142	74781.45179775318
2.3336930601623824	73064.83219139127
2.341472037029591	48728.849277366004
2.3492769438196897	64848.146925012385
2.3571078669657557	126644.15971890569
2.364964893188975	160878.86169332283
2.372848109499605	99421.34088677613
