#wavelength (micron)	surface_flux (erg / (cm2 micron s))
0.40133895199999997	1.6776544126706825
0.40267674850666674	1.3216085052840914
0.40401900433502225	0.1285478420126158
0.4053657343494724	0.1389429833469037
0.4067169534639707	2.0849702097406473
0.40807267664218394	12.701062715856965
0.4094329188976579	45.5676558774011
0.41079769529398347	117.6738830574489
0.41216702094496344	245.72745999571404
0.41354091101477997	443.3925294730601
0.4149193807181627	712.9171219314817
0.41630244532055655	1026.4780410401859
0.41769012013829176	1260.9127328625077
0.41908242053875283	987.0558874671248
0.4204793619405487	358.34827817899765
0.42188095981368384	822.1328395179777
0.42328722967972954	2570.2043842601925
0.4246981871119953	4213.662633127204
0.42611384773570193	5337.9220868128705
0.4275342272281543	6394.215140358156
0.4289593413189149	7544.1243837760785
0.43038920578997797	8646.60984496167
0.4318238364759446	9685.417252716561
0.43326324926419774	11297.892421785251
0.4347074600950785	12430.429813050809
0.4361564849620621	13058.484884186453
0.43761033991193565	14076.653211720382
0.4390690410449755	15679.90952269479
0.44053260451512544	16593.64711860674
0.4420010465301759	18545.36991085378
0.44347438335194317	21412.376130288434
0.4449526312964497	24112.19107881664
0.44643580673410455	24469.799230322944
0.44792392608988496	25096.7737105009
0.4494170058435179	26776.491575280834
0.450915062529663	28340.343443193862
0.4524181127380953	30090.04088149044
0.45392617311388894	31453.07494698533
0.45543926035760196	23527.120483750456
0.45695739122546064	19260.981099961955
0.4584805825295456	11127.39744342175
0.46000885113797746	7668.321227702357
0.46154221397510403	7106.131617475109
0.4630806880216877	6025.033662240152
0.4646242903150934	4916.39700643668
0.4661730379494771	4069.6990793656355
0.4677269480759754	3352.890762008426
0.4692860379028953	2616.0098894041894
0.47085032469590504	1875.1233585978193
0.4724198257782247	1237.5278819855264
0.47399455853081884	770.8294980929752
0.4755745403925883	472.0546385134442
0.4771597888605636	294.47482226155313
0.47875032149009894	192.164793370851
0.4803461558950659	126.29002978623545
0.48194730974804956	81.56559836846364
0.48355380078054305	52.79243017182537
0.4851656467831449	35.165417229596606
0.48678286560575545	24.733209785736268
0.4884054751577746	18.302578074321367
0.4900334934083006	13.987272186833662
0.4916669383863283	10.852819451389717
0.4933058281809494	8.460984271662925
0.4949501809415526	6.64558799268011
0.4966000148780246	5.228661924804644
0.4982553482609513	4.040656515707121
0.4999161994218212	3.1097145993135853
0.5015825867532273	2.4552161070657443
0.5032545287090715	2.0543892262805965
0.5049320438047684	1.8716365657278453
0.506615150617451	1.8763383487160068
0.5083038677861758	1.910121041947045
0.5099982140121297	1.9432911861779532
0.5116982080588369	1.9725150336952322
0.5134038687523664	2.021854408344331
0.515115214981541	2.075209378991196
0.5168322656981462	2.124683306537977
0.5185550399171401	2.203376128779816
0.5202835567168639	2.2717369173004816
0.5220178352392535	2.3339590352751234
0.5237578946900511	2.3970572574066957
0.525503754339018	2.4649124094663857
0.527255433520148	2.534528366080585
0.5290129516318819	2.6087044810340747
0.5307763281373216	2.690628941787037
0.532545582564446	2.777708002958258
0.5343207345063276	2.867351203849371
0.5361018036213486	2.9557257865786504
0.5378888096334199	3.0523092732230555
0.5396817723321979	3.156367855036754
0.5414807115733054	3.2549069524376266
0.5432856472785497	3.3644215011333047
0.545096599436145	3.4417838550429867
0.5469135881009322	3.5138044994103
0.5487366333946019	3.6675039191618266
0.5505657555059172	3.805530663735224
0.5524009746909371	3.9344091632775275
0.5542423112732402	4.049093780164544
0.556089785644151	4.166533297482886
0.557943418262965	4.2812673385319995
0.5598032296571749	4.385013575597875
0.5616692404226988	4.477564134510579
0.5635414712241079	4.561275056609746
0.5654199427948549	4.622864508841866
0.5673046759375044	4.603874544755625
0.569195691523963	4.554963297614221
0.5710930104957095	4.569878216063118
0.5729966538640286	4.586537512792733
0.5749066427102419	4.489899908794908
0.576822998185943	4.316073921400456
0.5787457415132294	4.1355083691732775
0.5806748939849402	3.871738262495095
0.58261047696489	3.536318587847485
0.5845525118881064	3.0669336931408724
0.5865010202610669	2.096250467702696
0.588456023661937	0.7966818121990172
0.5904175437408102	0.7508305498373131
0.5923856022199464	2.4269701188186823
0.5943602208940129	4.506063989744697
0.5963414216303263	6.500307294008966
0.598329226369094	8.62260124212161
0.6003236571236578	11.109977152160996
0.6023247359807368	13.986712770530069
0.6043324851006725	17.269587123750515
0.6063469267176749	21.063943761793134
0.6083680831400672	25.381665607599533
0.610395976750534	30.138503682489752
0.6124306300063692	35.42382269314676
0.6144720654397238	41.49699131551655
0.6165203056578563	48.25187239782547
0.6185753733433824	55.921622817358134
0.6206372912545272	64.47276553904656
0.6227060822253756	74.03261556963163
0.6247817691661269	84.68310886429948
0.6268643750633474	95.61580433857641
0.6289539229802253	108.41235915610434
0.6310504360568261	124.17848658893278
0.6331539375103489	140.28343514476134
0.6352644506353834	160.01401794005253
0.6373819988041681	179.09401670720536
0.6395066054668487	197.5871601151649
0.6416382941517382	226.8232370902328
0.6437770884655775	252.07511782173145
0.6459230120937961	260.18293284748313
0.6480760888007754	295.262837300721
0.6502363424301114	362.40629299514075
0.6524037969048785	421.77072881765235
0.6545784762278948	473.67765976744823
0.6567604044819878	537.8756984714308
0.6589496058302612	620.3002645456653
0.6611461045163621	704.0602411817218
0.66334992486475	806.0015562081521
0.6655610912809659	918.0252762232114
0.6677796282519025	1056.3512939251582
0.6700055603460756	1161.3190150672256
0.6722389122138959	1329.0359339809752
0.6744797085879423	1567.1067498265625
0.6767279742832354	1753.5614965097616
0.6789837341975129	1929.9825997939279
0.6812470133115047	2091.022957532659
0.6835178366892097	2199.098862207809
0.6857962294781739	2222.634527367718
0.6880822169097679	2165.4130413505477
0.6903758242994671	2001.272347672318
0.6926770770471321	1744.6463468606496
0.6949860006372892	1708.681175292996
0.6973026206394136	1808.783674935644
0.6996269627082117	1781.8522667632692
0.7019590525839058	1694.589739446582
0.7042989160925188	1829.2716298510743
0.7066465791461606	1981.8324403006145
0.7090020677433145	2022.319350534153
0.7113654079691256	2102.205252170046
0.7137366259956894	2149.198683917463
0.7161157480823418	1940.1323037653694
0.7185028005759496	1762.324301836879
0.7208978099112028	1836.1153019725932
0.7233008026109069	1969.6938724006866
0.7257118052862767	1946.501544612374
0.728130844637231	2025.0706055046126
0.7305579474526884	1900.9284234251174
0.7329931406108642	1766.3005311601535
0.7354364510795671	1752.4801585137616
0.7378879059164991	1935.2607129685964
0.7403475322695541	2153.3576893383893
0.7428153573771193	2235.8292470148635
0.7452914085683765	2332.8333565190933
0.7477757132636044	2389.2889101947785
0.7502682989744831	2339.824360303713
0.7527691933043982	2319.6547031457035
0.7552784239487462	2266.7532405465736
0.7577960186952422	2212.003935916488
0.7603220054242263	2081.3425771400234
0.7628564121089738	1601.4939431313362
0.7653992668160038	709.2310930419993
0.7679505977053904	326.5226959347342
0.7705104330310751	580.071834750774
0.7730788011411788	1422.7797098006747
0.7756557304783162	2305.989709653686
0.7782412495799106	2862.0985326491314
0.7808353870785104	3286.055603287194
0.7834381717021055	4077.590262131646
0.7860496322744459	4671.3520050394445
0.7886697977153608	5384.483835451295
0.7912986970410787	6220.84095746049
0.793936359364549	6427.737231399049
0.7965828138957642	7093.504614950272
0.7992380899420836	8507.046874645108
0.8019022169085571	9871.493657120922
0.8045752242982523	11139.407027372952
0.80725714171258	12077.080693247533
0.809947998851622	12107.79860585927
0.8126478255144608	11678.568715859168
0.8153566515995091	10861.585980835544
0.8180745071048409	13019.553218661376
0.8208014221285237	18618.824099588594
0.8235374268689521	20912.54987727992
0.8262825516251822	24156.784453139935
0.8290368267972661	25302.69957038644
0.8318002828865904	26976.552423904
0.8345729504962124	27352.75083221791
0.8373548603311998	29765.36345058852
0.8401460431989706	38081.403715566186
0.8429465300096338	41775.7704717408
0.8457563517763327	46968.71808494092
0.8485755396155872	53389.672558814695
0.8514041247476393	56241.59464873828
0.8542421384967981	65608.04791909878
0.8570896122917875	78911.50202147748
0.8599465776660935	89051.38305600178
0.8628130662583139	98938.67875827114
0.8656891098125085	108933.6978351848
0.8685747401785502	118696.97437715602
0.8714699893124788	128853.09136996508
0.8743748892768537	142241.90791291563
0.8772894722411099	155872.7479038105
0.8802137704819137	164852.3802651941
0.8831478163835201	168349.03102926404
0.8860916424381319	152053.7055741262
0.8890452812462591	107823.32132328095
0.89200876551708	67703.68790048509
0.8949821280688037	86161.76704732119
0.8979654018290332	105892.82157921218
0.90095861983513	105873.04331484647
0.9039618152345804	164397.87176166818
0.9069750212853626	183185.57179003287
0.9099982713563137	215400.94190528637
0.9130315989275016	254840.0304425923
0.9160750375905932	258391.00810019163
0.9191286210492287	329089.4895925261
0.9221923831193928	456168.365383767
0.9252663577297908	415880.64474779664
0.9283505789222235	205097.7237110589
0.9314450808519644	120548.16701090179
0.9345498977881376	108522.24470828657
0.9376650641140981	128455.90885900427
0.940790614327812	277896.75627643947
0.9439265830422381	389785.11685309996
0.9470730049857122	369511.97226840997
0.9502299150023314	217589.50322104548
0.9533973480523392	201122.46419878653
0.9565753392125138	219725.3858393726
0.9597639236765556	235546.1892287434
0.9629631367554774	176687.79783870338
0.9661730138779958	275786.8440213507
0.9693935905909224	450827.15753764653
0.972624902559559	521169.0482995755
0.9758669855680909	544453.3485916732
0.9791198755199847	573529.0249555159
0.9823836084383848	518628.5779752232
0.9856582204665127	713625.0358187251
0.9889437478680678	923600.5805571827
0.9922402270276282	866870.7439389413
0.9955476944510537	745046.6474638394
0.9988661867658906	818100.2873378359
1.002195740721777	809145.4061570708
1.0055363931908496	1043317.2517520012
1.0088881811681525	1301804.2912309812
1.0122511417720463	1615326.6243787506
1.01562531224462	1563514.0861616235
1.019010729952102	1541204.1357114562
1.0224074323852759	1659959.6795357757
1.0258154571598936	2094896.9474066384
1.0292348420170931	2473011.184726998
1.0326656248238169	2474616.7609345373
1.0361078435732296	2376649.7796249073
1.0395615363851405	2936405.6574930325
1.0430267415064245	3773427.8948902464
1.0465034973114462	3958286.665794847
1.0499918423024843	3859439.447832967
1.0534918151101593	4456125.436972622
1.05700345449386	5223155.535087799
1.0605267993421728	5700899.380094
1.0640618886733135	5939096.1774860555
1.067608761635558	5908357.219116364
1.0711674575076766	5858524.266335991
1.0747380156993689	5444450.599649884
1.0783204757517002	4764744.02892178
1.0819148773375393	4818179.4063422065
1.085521260261998	4533151.206291826
1.0891396644628712	3925247.995285559
1.092770130011081	2766289.6526438277
1.0964126971111179	1649513.0824409171
1.1000674061014886	1351275.6384626252
1.10373429745516	1229989.075439689
1.1074134117800107	506209.2414728422
1.1111047898192774	221308.66564154503
1.1148084724520084	162418.46879402638
1.1185245006935154	143622.72964512123
1.1222529156958272	199717.54840160906
1.1259937587481466	212535.84956255922
1.1297470712773072	194344.94028775423
1.1335128948482316	83818.66501327282
1.1372912711643925	110950.66324672256
1.1410822420682738	217228.9310031657
1.1448858495418348	199963.1286497514
1.1487021357069744	94678.85354866505
1.1525311428259977	36170.11934683306
1.1563729133020846	12629.895478162513
1.1602274896797582	10598.520586448843
1.1640949146453576	45246.02332018464
1.1679752310275089	115993.2572014739
1.1718684817976006	70725.41689340967
1.1757747100702594	25805.16340542503
1.1796939591038271	77856.01579763746
1.1836262723008397	116928.55887870843
1.1875716932085094	180827.3305365591
1.1915302655192046	204625.6955965058
1.1955020330709352	306890.36812824814
1.1994870398478386	646338.015497386
1.2034853299806647	978270.611831826
1.207496947747267	1046628.4554688481
1.2115219375730912	1171861.417308536
1.2155603440316685	1386935.8747996103
1.2196122118451074	1868890.3660262327
1.2236775858845912	2607237.067820074
1.2277565111708733	3704914.750764454
1.2318490328747762	4677975.408978074
1.2359551963176922	5220029.15385809
1.2400750469720847	6266390.812642614
1.2442086304619917	7993547.810577936
1.248355992563532	9054857.818755412
1.2525171792054102	9171776.33822771
1.2566922364694284	10416450.077949217
1.2608812105909932	11003880.556810293
1.2650841479596302	10487566.372332532
1.2693010951194956	10270413.83550724
1.273532098769894	10564353.0024627
1.2777772057657937	9437406.794232944
1.2820364631183463	7420385.628219336
1.2863099179954076	4944945.855835712
1.2905976177220593	4484055.072377013
1.2948996097811327	3797771.2705656397
1.2992159418137368	3282765.4956701975
1.3035466616197826	2673231.8166082767
1.3078918171585154	1795686.4849983419
1.3122514565490437	852377.4333415481
1.3166256280708741	970035.2463656734
1.3210143801644436	1090228.4520316247
1.3254177614316587	835252.5128115413
1.329835820636431	389000.6019347386
1.3342686067052192	134654.2524684347
1.33871616872757	55722.859617902344
1.343178555956662	27037.69193692607
1.347655817809851	8869.029882109982
1.352148003869217	6272.692783703669
1.3566551638821147	3818.133217350812
1.3611773477617217	1460.7105194040619
1.3657146055875944	1433.8871454030896
1.3702669876062197	2487.1797928170713
1.3748345442315741	4633.513685355302
1.3794173260456792	6227.713888935354
1.384015383799165	3276.1512614171115
1.388628768411829	2726.637385216787
1.3932575309732018	4291.143991158098
1.3979017227431125	4781.473589632406
1.4025613951522564	9817.814618409453
1.407236599802764	10507.175428319504
1.4119273884687735	11324.659992969579
1.4166338130970026	7563.366144783856
1.4213559258073263	7426.639894571904
1.4260937788933508	14524.16575272862
1.4308474248229952	18960.015187345212
1.4356169162390722	21690.54838651264
1.4404023059598692	46832.43486840183
1.4452036469797356	61994.38552026839
1.450020992469668	48679.27879239027
1.4548543957779003	53344.313678784485
1.4597039104304934	63674.109154175225
1.4645695901319284	90294.93261731167
1.469451488765702	57647.07229551997
1.4743496603949209	20746.63579850782
1.479264159262904	25991.91755916573
1.4841950397937806	28938.920095316797
1.4891423565930935	31548.29485718359
1.4941061644484037	61463.47446382088
1.4990865183298985	135061.7117672227
1.5040834733909982	121518.59835756505
1.5090970849689684	167666.83105968565
1.5141274085855316	121387.70052908595
1.5191744999474837	143960.5855949055
1.5242384149473087	251547.82456074847
1.5293192096638	387813.69721198897
1.5344169403626793	336429.6147097776
1.5395316634972218	400303.568265356
1.544663435708879	533995.6781848245
1.5498123138279087	816288.8386791976
1.554978354874002	1344329.9752756353
1.5601616160569156	1225838.9601314021
1.5653621547771055	1517536.9957733762
1.5705800286263625	2362064.63260415
1.5758152953884506	2982324.268970927
1.5810680130397454	3262019.531079245
1.5863382397498782	3158419.1860621586
1.5916260338823778	3335351.667702147
1.5969314539953192	2671770.7285242826
1.6022545588419705	1541944.988843956
1.6075954073714436	867198.300029345
1.6129540587293487	481452.9614727664
1.6183305722584467	287571.565500218
1.6237250074993084	170922.5904589831
1.6291374241909726	150422.89467205817
1.6345678822716092	120105.65651300656
1.6400164418791816	68912.60694020765
1.6454831633521123	115821.4632204301
1.6509681072299527	173243.20357576513
1.6564713342540527	188548.90319586068
1.6619929053682332	180740.91372181007
1.6675328817194608	90665.97889946247
1.6730913246585257	24331.773456838742
1.6786682957407209	65244.63763259559
1.6842638567265233	105047.05452948858
1.6898780695822784	74773.81337667147
1.6955109964808863	26444.436257618585
1.7011626998024894	34083.038181618766
1.7068332421351646	73274.28365884848
1.7125226862756153	77015.44319582578
1.7182310952298672	84657.73347228415
1.7239585322139668	77047.7365590586
1.7297050606546804	47927.7385525465
1.7354707441901962	62267.157697057206
1.7412556466708302	67303.45029355619
1.747059832159733	107579.50824497791
1.752883364933599	150262.52358593588
1.7587263094833776	104213.6392823941
1.7645887305149892	71412.52606047707
1.7704706929500391	59028.64321580246
1.7763722619265396	100115.75823604295
1.7822935027996283	98831.57486585279
1.7882344811422937	77249.38069133568
1.7941952627461015	43768.6188090213
1.8001759136219222	37212.05080145434
1.8061765000006618	34361.60750022389
1.8121970883339975	44329.87946120696
1.818237745295111	71017.60165320434
1.8242985377794283	95814.3919170286
1.8303795329053596	38448.01916809308
1.8364807980150446	15061.346670134404
1.8426024006750947	34295.22406640719
1.8487444086773455	64072.2212374775
1.8549068900396033	63012.1699681011
1.861089913006402	25078.170586246015
1.8672935460497566	16234.292536387127
1.873517857869923	21481.093694958225
1.879762917396156	65238.15649320238
1.8860287937874767	113586.23427237468
1.8923155564334353	152456.59883357052
1.8986232749548801	133610.7380103026
1.9049520192047298	63334.99675174161
1.9113018592687456	65075.78767073696
1.9176728654663082	30233.55541030703
1.9240651083511964	22514.80941848558
1.9304786587123668	14126.746873038312
1.9369135875747419	7644.318632385531
1.9433699661999908	15328.964801644634
1.9498478660873244	10464.982657397632
1.9563473589742824	12313.376115989882
1.9628685168375302	37521.91861124909
1.9694114118936552	65968.97110349714
1.9759761165999676	92675.28983827544
1.9825627036553009	117761.48894335706
1.9891712460008188	150907.7417074962
1.9958018168208218	161867.38026504815
2.002454489543558	160703.16364853346
2.0091293378420367	169846.98059094205
2.0158264356348434	144706.32277213526
2.02254585708696	89830.11393123046
2.029287676610583	136123.1304613656
2.036051968865952	204397.54161121591
2.042838808762172	251496.0140051049
2.049648271458046	265873.96058681334
2.0564804323629065	330998.89589914156
2.0633353671374497	465012.22845147306
2.0702131516945745	659179.6471536434
2.0771138622002234	599737.4035301474
2.084037575074224	527924.5075074194
2.0909843669911385	509650.58268497704
2.097954314881109	520429.5664371785
2.1049474959307126	600227.3435311496
2.1119639875838154	624934.6088928997
2.1190038675424283	534161.8032478668
2.12606721376757	499305.4642326559
2.1331541044801288	474489.01341060904
2.140264618161729	396421.025012683
2.147398833555602	314177.74710082775
2.154556829667454	261564.17418209708
2.1617386857663456	208083.93772283074
2.1689444813855667	187987.73158641928
2.176174296323519	166714.53038348965
2.1834282106445975	129568.67603651855
2.19070630468008	55981.39733250136
2.1980086590290138	10879.799620290847
2.2053353545591103	10815.651492300338
2.2126864724076407	27619.883602785965
2.220062093982333	22153.79491420645
2.2274623009622747	10402.73502330349
2.2348871752988155	6046.053732531508
2.2423367992164787	5136.111462272534
2.2498112552138667	3968.3303745976045
2.25731062606458	3285.7793697132543
2.2648349948181288	2413.211979042896
2.272384444800856	2607.386003422607
2.2799590596168593	4706.859998856779
2.2875589231489153	4365.101276938538
2.295184119559412	3380.7686273414265
2.302834733291277	9182.775256258861
2.3105108490689146	16862.574638498194
2.3182125518991445	8131.2389541492785
2.325939927072142	2722.7310829209614
2.3336930601623824	2924.00852008432
2.341472037029591	1245.5039468103582
2.3492769438196897	1954.2298597530082
2.3571078669657557	8465.90626080209
2.364964893188975	11803.424848395582
2.372848109499605	6605.597140500297
