#wavelength (micron)	surface_flux (erg / (cm2 micron s))
0.40133895199999997	0.0008963808845024443
0.40267674850666674	0.0010486869254936419
0.40401900433502225	0.00036952741947169146
0.4053657343494724	0.00042950152727214445
0.4067169534639707	0.001755677581381542
0.40807267664218394	0.004875218894256877
0.4094329188976579	0.010532765987889037
0.41079769529398347	0.019539848417228962
0.41216702094496344	0.03255960260801512
0.41354091101477997	0.05047966454239674
0.4149193807181627	0.07315362441607194
0.41630244532055655	0.10007521634511667
0.41769012013829176	0.12630167507383916
0.41908242053875283	0.12449932328506234
0.4204793619405487	0.10672913922304036
0.42188095981368384	0.17059528662460127
0.42328722967972954	0.3060140661741568
0.4246981871119953	0.4350857275183075
0.42611384773570193	0.5515896196454673
0.4275342272281543	0.6771549801621279
0.4289593413189149	0.8150737396917408
0.43038920578997797	0.9686410499117656
0.4318238364759446	1.1418873675386676
0.43326324926419774	1.3361491485955113
0.4347074600950785	1.5525464067357215
0.4361564849620621	1.7922732848326806
0.43761033991193565	2.0558577851685564
0.4390690410449755	2.3407702959931895
0.44053260451512544	2.6561753265215375
0.4420010465301759	2.982009710504775
0.44347438335194317	3.369039624355083
0.4449526312964497	3.8398662493907048
0.44643580673410455	4.339940160444933
0.44792392608988496	4.811477555211895
0.4494170058435179	8.756060535578179
0.450915062529663	6.208924809621449
0.4524181127380953	7.026589195919791
0.45392617311388894	7.7606524122979605
0.45543926035760196	8.372309735197597
0.45695739122546064	8.651525200251323
0.4584805825295456	8.432771299148035
0.46000885113797746	8.69995104991064
0.46154221397510403	9.070728882526687
0.4630806880216877	9.296740124831633
0.4646242903150934	9.394811055303187
0.4661730379494771	9.366033120772876
0.4677269480759754	9.23498490424452
0.4692860379028953	8.94262908346056
0.47085032469590504	8.52378197305455
0.4724198257782247	7.97455180398351
0.47399455853081884	7.304493112893926
0.4755745403925883	6.620248384746264
0.4771597888605636	5.988670375649831
0.47875032149009894	5.469342621235039
0.4803461558950659	4.938009415552016
0.48194730974804956	4.389193572200471
0.48355380078054305	3.8731804418308013
0.4851656467831449	3.429951219848386
0.48678286560575545	3.13662624639006
0.4884054751577746	2.9175139587553396
0.4900334934083006	2.7235388150324065
0.4916669383863283	2.5401171989074864
0.4933058281809494	2.3489442641753713
0.4949501809415526	2.152732481068306
0.4966000148780246	1.9384324310435765
0.4982553482609513	1.6715481515166122
0.4999161994218212	1.409776203220217
0.5015825867532273	1.15240959300143
0.5032545287090715	0.9194583865586387
0.5049320438047684	0.8483346976523192
0.506615150617451	0.8732951982302157
0.5083038677861758	0.8703171063620402
0.5099982140121297	0.8862051280114641
0.5116982080588369	0.9112278432695127
0.5134038687523664	0.9422754431230257
0.515115214981541	0.9805889482399422
0.5168322656981462	1.0200722825963033
0.5185550399171401	1.0648664019619045
0.5202835567168639	1.1026351928474618
0.5220178352392535	1.130715176269592
0.5237578946900511	1.1484900770743824
0.525503754339018	1.174446752288856
0.527255433520148	1.2009055667422823
0.5290129516318819	1.2251668667075615
0.5307763281373216	1.2514331457443275
0.532545582564446	1.2847245328713621
0.5343207345063276	1.3205108076922991
0.5361018036213486	1.3507260097252776
0.5378888096334199	1.375956772074075
0.5396817723321979	1.3846637343802324
0.5414807115733054	1.3987099714420814
0.5432856472785497	1.4591694817103642
0.545096599436145	1.5051306529529707
0.5469135881009322	1.5365712880719409
0.5487366333946019	1.6070342902948898
0.5505657555059172	1.6743301898671537
0.5524009746909371	1.7408317861768197
0.5542423112732402	1.803120530159227
0.556089785644151	1.8586813232878763
0.557943418262965	1.9080784629021394
0.5598032296571749	1.9474624248129346
0.5616692404226988	1.9767801646984757
0.5635414712241079	2.00166460877802
0.5654199427948549	2.006057821041055
0.5673046759375044	1.927280576326685
0.569195691523963	1.8536634114692596
0.5710930104957095	1.8998787499960044
0.5729966538640286	1.89119593271235
0.5749066427102419	1.8492797786066304
0.576822998185943	1.7999151244390688
0.5787457415132294	1.7585961418654215
0.5806748939849402	1.6932551056670757
0.58261047696489	1.604779035316522
0.5845525118881064	1.4638670974710823
0.5865010202610669	1.0505242948336695
0.588456023661937	0.3887424514803901
0.5904175437408102	0.3553267738007165
0.5923856022199464	1.1719048990193892
0.5943602208940129	1.9720917505368778
0.5963414216303263	2.629320489631387
0.598329226369094	3.3381434931360925
0.6003236571236578	4.272641076955648
0.6023247359807368	5.517872565190742
0.6043324851006725	7.170750860570723
0.6063469267176749	9.261178013438508
0.6083680831400672	11.593658002647778
0.610395976750534	14.272029139943166
0.6124306300063692	17.317436818073542
0.6144720654397238	20.749982013962626
0.6165203056578563	24.495732081285624
0.6185753733433824	28.71394038708319
0.6206372912545272	33.37835580821442
0.6227060822253756	38.36083431026538
0.6247817691661269	42.89665080387578
0.6268643750633474	46.91287553974925
0.6289539229802253	54.67906769454561
0.6310504360568261	64.12984467656018
0.6331539375103489	72.232772460504
0.6352644506353834	84.49401863194694
0.6373819988041681	95.32495419264956
0.6395066054668487	106.70269149676837
0.6416382941517382	121.04278074019548
0.6437770884655775	129.04686413866452
0.6459230120937961	122.37437097807612
0.6480760888007754	133.15051018776913
0.6502363424301114	168.3727268785198
0.6524037969048785	193.25165573742268
0.6545784762278948	223.57107384603182
0.6567604044819878	245.1260544446198
0.6589496058302612	287.6961279070197
0.6611461045163621	346.0353984847611
0.66334992486475	415.9576650382814
0.6655610912809659	490.47910009572485
0.6677796282519025	572.0333219408719
0.6700055603460756	628.554409307813
0.6722389122138959	720.2355528062783
0.6744797085879423	855.8803147668531
0.6767279742832354	948.5073874770121
0.6789837341975129	1002.7357531999359
0.6812470133115047	1017.3775904214104
0.6835178366892097	992.8470474455265
0.6857962294781739	926.5733014389434
0.6880822169097679	813.3756108088396
0.6903758242994671	613.5398128391656
0.6926770770471321	370.5187204390437
0.6949860006372892	341.1517107594181
0.6973026206394136	420.9231024905467
0.6996269627082117	396.8770840802389
0.7019590525839058	340.53044422619996
0.7042989160925188	349.0692684260825
0.7066465791461606	377.59845119784234
0.7090020677433145	398.9574931325578
0.7113654079691256	397.80884052798615
0.7137366259956894	364.20075493716763
0.7161157480823418	204.58026815671195
0.7185028005759496	90.12562950179012
0.7208978099112028	140.607537895913
0.7233008026109069	171.7016103776421
0.7257118052862767	137.31351546613953
0.728130844637231	155.79753669608104
0.7305579474526884	154.82007435669485
0.7329931406108642	185.34528999258995
0.7354364510795671	220.09107248544774
0.7378879059164991	280.4911609617141
0.7403475322695541	361.68068330839975
0.7428153573771193	451.55550057577767
0.7452914085683765	523.4725207132809
0.7477757132636044	613.4316933682277
0.7502682989744831	686.9066783212027
0.7527691933043982	739.3526728277244
0.7552784239487462	788.6715776204801
0.7577960186952422	815.8237109086195
0.7603220054242263	817.5397657544456
0.7628564121089738	729.8248293739164
0.7653992668160038	521.7705804294935
0.7679505977053904	455.13885196531095
0.7705104330310751	552.6170469635177
0.7730788011411788	748.8718550091404
0.7756557304783162	977.4339274937619
0.7782412495799106	1127.0141179398126
0.7808353870785104	1194.6662027960238
0.7834381717021055	1311.6361967529645
0.7860496322744459	1274.5560142170787
0.7886697977153608	1334.4493398095733
0.7912986970410787	1670.6227213894017
0.793936359364549	1834.8695200115128
0.7965828138957642	1820.342892703749
0.7992380899420836	2007.2183628289185
0.8019022169085571	2229.976251823243
0.8045752242982523	2412.404382898216
0.80725714171258	2261.8655213106686
0.809947998851622	1475.6132411923863
0.8126478255144608	735.9872132050118
0.8153566515995091	473.50457961384177
0.8180745071048409	919.9620613482151
0.8208014221285237	1558.0796512168315
0.8235374268689521	1511.470842115494
0.8262825516251822	1975.5793150740376
0.8290368267972661	1885.1619534220686
0.8318002828865904	1707.993369849633
0.8345729504962124	1706.7670858427819
0.8373548603311998	2049.485613993609
0.8401460431989706	3165.429130834026
0.8429465300096338	3988.7280706698775
0.8457563517763327	5106.794776779588
0.8485755396155872	6266.3582129691995
0.8514041247476393	7184.915043004325
0.8542421384967981	8362.491102162418
0.8570896122917875	9780.534110199815
0.8599465776660935	11050.666911252905
0.8628130662583139	11966.114576666288
0.8656891098125085	12451.1169556854
0.8685747401785502	12198.04357977254
0.8714699893124788	11832.91449540264
0.8743748892768537	11799.20448082568
0.8772894722411099	11553.635409430412
0.8802137704819137	10470.860855745072
0.8831478163835201	8901.48181211205
0.8860916424381319	5432.8556583863765
0.8890452812462591	1539.3390144298821
0.89200876551708	209.1001000553307
0.8949821280688037	124.47412457764753
0.8979654018290332	117.40151247394076
0.90095861983513	256.57430561254904
0.9039618152345804	828.1989443743234
0.9069750212853626	809.2298232387373
0.9099982713563137	723.9798267285494
0.9130315989275016	1283.366472098402
0.9160750375905932	1638.3375891213022
0.9191286210492287	2804.5133413404724
0.9221923831193928	4393.66380096255
0.9252663577297908	2503.6439883596813
0.9283505789222235	440.56405120240703
0.9314450808519644	8.091131000440893
0.9345498977881376	1.9335903587411538
0.9376650641140981	34.53833369748137
0.940790614327812	93.97139487106868
0.9439265830422381	50.620964223687416
0.9470730049857122	21.300358536074995
0.9502299150023314	20.92070051181434
0.9533973480523392	23.60762623933694
0.9565753392125138	29.366784946040294
0.9597639236765556	36.8105884201313
0.9629631367554774	62.65446171412869
0.9661730138779958	397.0858921130269
0.9693935905909224	1026.0013418848164
0.972624902559559	1274.43092817975
0.9758669855680909	975.0987775408117
0.9791198755199847	1257.7667551734455
0.9823836084383848	1497.7398909592891
0.9856582204665127	2060.237491176293
0.9889437478680678	3119.0011390972195
0.9922402270276282	3824.996041754621
0.9955476944510537	4177.519910542821
0.9988661867658906	4005.2861241612786
1.002195740721777	2795.1191831081314
1.0055363931908496	2465.606740685704
1.0088881811681525	2133.660138365437
1.0122511417720463	1810.6942632373118
1.01562531224462	947.8764832581251
1.019010729952102	364.3376671490702
1.0224074323852759	242.90920135842322
1.0258154571598936	381.69251974251654
1.0292348420170931	547.3665730572394
1.0326656248238169	357.7436580511542
1.0361078435732296	236.86990087776357
1.0395615363851405	497.2230603083086
1.0430267415064245	911.6756220545639
1.0465034973114462	1184.9586944555401
1.0499918423024843	1356.5778409887153
1.0534918151101593	1853.095027433998
1.05700345449386	2353.7869075410517
1.0605267993421728	2447.553279070859
1.0640618886733135	2311.0941935087203
1.067608761635558	2020.384984533882
1.0711674575076766	1725.9586550792078
1.0747380156993689	1470.2543767776085
1.0783204757517002	1237.9375531735445
1.0819148773375393	1028.300515858821
1.085521260261998	862.5905549602708
1.0891396644628712	746.1376366979696
1.092770130011081	595.9602699630044
1.0964126971111179	390.5040759105188
1.1000674061014886	249.0517286601079
1.10373429745516	140.6448525347231
1.1074134117800107	48.83787427196688
1.1111047898192774	12.768769258861044
1.1148084724520084	4.326634496137706
1.1185245006935154	1.8759824186668705
1.1222529156958272	1.365215513889756
1.1259937587481466	1.1515735656743038
1.1297470712773072	2.2938611172947185
1.1335128948482316	2.052315271512649
1.1372912711643925	5.7199954768698795
1.1410822420682738	12.842179918093107
1.1448858495418348	7.264045591267703
1.1487021357069744	1.984208021560369
1.1525311428259977	1.4228964884763127
1.1563729133020846	0.37520414818142195
1.1602274896797582	0.12956845833236372
1.1640949146453576	1.4376123820880493
1.1679752310275089	5.226777991168925
1.1718684817976006	2.724301117035532
1.1757747100702594	2.8204871752445797
1.1796939591038271	9.70186855781036
1.1836262723008397	9.036171506394345
1.1875716932085094	7.64025479691652
1.1915302655192046	12.359704023119546
1.1955020330709352	20.347861167398634
1.1994870398478386	31.505794906352723
1.2034853299806647	37.67651666430773
1.207496947747267	34.03813499704777
1.2115219375730912	33.76817522761442
1.2155603440316685	45.38275201861119
1.2196122118451074	63.423937381685775
1.2236775858845912	95.88385381829036
1.2277565111708733	193.7748999876581
1.2318490328747762	276.50169982273627
1.2359551963176922	417.0997957863992
1.2400750469720847	726.5044751139203
1.2442086304619917	1193.9783408177718
1.248355992563532	1599.117592766165
1.2525171792054102	1676.0170965926447
1.2566922364694284	2008.9096854025072
1.2608812105909932	3056.4817659292235
1.2650841479596302	4619.817302324996
1.2693010951194956	5908.770987949051
1.273532098769894	5024.486981387851
1.2777772057657937	3543.3422459364633
1.2820364631183463	2472.0092893172896
1.2863099179954076	1403.3793019564723
1.2905976177220593	812.2020227250192
1.2948996097811327	684.7482939577536
1.2992159418137368	574.1622015962158
1.3035466616197826	471.2077547949522
1.3078918171585154	395.2977605858586
1.3122514565490437	220.88540669818659
1.3166256280708741	164.679262087208
1.3210143801644436	185.80876771506925
1.3254177614316587	195.2582090145528
1.329835820636431	107.52025622976512
1.3342686067052192	42.533313471740954
1.33871616872757	18.588611731646186
1.343178555956662	1.971602648510028
1.347655817809851	0.13424800600351589
1.352148003869217	0.04631425412729678
1.3566551638821147	0.0045145437695033415
1.3611773477617217	0.0004869931123535635
1.3657146055875944	0.0004390440824146623
1.3702669876062197	0.0005194871729024943
1.3748345442315741	0.005505323363606336
1.3794173260456792	0.008076034897980162
1.384015383799165	0.0017900198887286867
1.388628768411829	0.008293400412921462
1.3932575309732018	0.014474440084374323
1.3979017227431125	0.02685929493801419
1.4025613951522564	0.05266148417424351
1.407236599802764	0.05225364733527517
1.4119273884687735	0.1123188692083417
1.4166338130970026	0.09649889313698085
1.4213559258073263	0.11881831497439427
1.4260937788933508	0.26813997187863137
1.4308474248229952	0.4987827471724012
1.4356169162390722	0.6095540536463046
1.4404023059598692	1.414681654967044
1.4452036469797356	3.324448711605808
1.450020992469668	10.678659137435131
1.4548543957779003	24.789674554161866
1.4597039104304934	32.061384505011816
1.4645695901319284	15.591869312421508
1.469451488765702	3.5675297146404112
1.4743496603949209	0.6695139870576342
1.479264159262904	0.696927322938491
1.4841950397937806	0.39417372888984525
1.4891423565930935	0.29588862409608285
1.4941061644484037	0.4134318310434227
1.4990865183298985	0.5286500971238248
1.5040834733909982	1.0110229945652267
1.5090970849689684	1.2562780048624465
1.5141274085855316	0.23554729702563248
1.5191744999474837	0.8867071868873984
1.5242384149473087	3.096493892072788
1.5293192096638	7.873506003804812
1.5344169403626793	7.5110173388649875
1.5395316634972218	10.031629825816362
1.544663435708879	24.599338492771913
1.5498123138279087	64.74453975279368
1.554978354874002	169.32150857661372
1.5601616160569156	393.20750868919947
1.5653621547771055	1048.4584972310204
1.5705800286263625	2263.0028636522334
1.5758152953884506	3369.5271079139256
1.5810680130397454	4588.173350455065
1.5863382397498782	5709.3429473772185
1.5916260338823778	7299.496815913775
1.5969314539953192	7604.816964540072
1.6022545588419705	6248.080413497463
1.6075954073714436	3998.4716304714275
1.6129540587293487	1956.83575485517
1.6183305722584467	689.1542286788231
1.6237250074993084	194.84992128060142
1.6291374241909726	56.11641774063564
1.6345678822716092	27.329006425689677
1.6400164418791816	14.806600303010459
1.6454831633521123	14.31595806978457
1.6509681072299527	7.9299138748398255
1.6564713342540527	49.28460301723849
1.6619929053682332	114.87250991399654
1.6675328817194608	43.81433531205151
1.6730913246585257	14.732972398014548
1.6786682957407209	49.41793331538306
1.6842638567265233	59.70044710409714
1.6898780695822784	24.819891031086595
1.6955109964808863	6.794464275522114
1.7011626998024894	3.8813429906520587
1.7068332421351646	15.874588330831536
1.7125226862756153	29.25398304462289
1.7182310952298672	41.77253635040249
1.7239585322139668	29.371871851184892
1.7297050606546804	7.4393774510461865
1.7354707441901962	10.4287369176052
1.7412556466708302	26.415343377049382
1.747059832159733	55.59797938347733
1.752883364933599	76.25132085961143
1.7587263094833776	56.931075615187474
1.7645887305149892	40.403261684551694
1.7704706929500391	27.85541207251869
1.7763722619265396	28.750871382774775
1.7822935027996283	28.376842890962088
1.7882344811422937	12.146243865525719
1.7941952627461015	5.3217865668474165
1.8001759136219222	5.03039227835387
1.8061765000006618	2.2139711881791277
1.8121970883339975	1.6312114919954295
1.818237745295111	1.7714565156398139
1.8242985377794283	3.319395096738212
1.8303795329053596	1.2519330144570853
1.8364807980150446	0.2529767470785424
1.8426024006750947	0.7646110957707098
1.8487444086773455	0.9922117370764068
1.8549068900396033	0.6075966416839221
1.861089913006402	0.38905092233640104
1.8672935460497566	0.18428528370346656
1.873517857869923	0.09847402375289865
1.879762917396156	1.0700685590180983
1.8860287937874767	2.9482209613638393
1.8923155564334353	3.1977013006550994
1.8986232749548801	2.0420046319513387
1.9049520192047298	0.7093796595988834
1.9113018592687456	0.6371682393191375
1.9176728654663082	0.7384152798108331
1.9240651083511964	1.0304668271952209
1.9304786587123668	0.36706150633252604
1.9369135875747419	0.04217157847128497
1.9433699661999908	0.022022591846553193
1.9498478660873244	0.046515268304291243
1.9563473589742824	0.33326762869367516
1.9628685168375302	1.2294318244834601
1.9694114118936552	1.8288421684784275
1.9759761165999676	1.886642761543593
1.9825627036553009	2.0413189390598507
1.9891712460008188	3.280013486228194
1.9958018168208218	4.945745496293043
2.002454489543558	4.945109663240869
2.0091293378420367	3.5795816223525794
2.0158264356348434	3.517473696287793
2.02254585708696	4.334476786988384
2.029287676610583	8.409879900740446
2.036051968865952	9.445666342937772
2.042838808762172	10.198271841921487
2.049648271458046	12.21266440097417
2.0564804323629065	13.428514803126115
2.0633353671374497	13.599109662967628
2.0702131516945745	13.354851787879275
2.0771138622002234	11.719952078898661
2.084037575074224	10.571341273499593
2.0909843669911385	9.56282206876117
2.097954314881109	8.45220787311813
2.1049474959307126	8.020239191056346
2.1119639875838154	8.187028931923848
2.1190038675424283	8.398473683757924
2.12606721376757	8.977631874544965
2.1331541044801288	9.36935257014301
2.140264618161729	9.984436550587638
2.147398833555602	10.654937128728369
2.154556829667454	9.91975365827413
2.1617386857663456	8.597866563335542
2.1689444813855667	7.7369765102681365
2.176174296323519	7.5021354684437185
2.1834282106445975	6.653462797008906
2.19070630468008	3.8741437656081197
2.1980086590290138	0.9977029909168617
2.2053353545591103	0.3549647850337257
2.2126864724076407	0.6375338019360438
2.220062093982333	0.31756081155905447
2.2274623009622747	0.27990972995685337
2.2348871752988155	0.2088391301262991
2.2423367992164787	0.1181794994854937
2.2498112552138667	0.06203618611291612
2.25731062606458	0.052674761573635126
2.2648349948181288	0.012339201631815065
2.272384444800856	0.016675415491914567
2.2799590596168593	0.04725141614689719
2.2875589231489153	0.02572460192828646
2.295184119559412	0.016828475161314575
2.302834733291277	0.04606981819914616
2.3105108490689146	0.16703322812781352
2.3182125518991445	0.12009429590852304
2.325939927072142	0.029814532024665604
2.3336930601623824	0.027243293931694265
