#wavelength (micron)	surface_flux (erg / (cm2 micron s))
0.40133895199999997	0.1725205425435642
0.40267674850666674	0.16192951124774616
0.40401900433502225	0.028960771730887725
0.4053657343494724	0.031097645851965408
0.4067169534639707	0.24344502327861625
0.40807267664218394	1.006352499955648
0.4094329188976579	2.8953775714147314
0.41079769529398347	6.784583385442537
0.41216702094496344	13.841216962007485
0.41354091101477997	25.337159793896227
0.4149193807181627	42.2371949662298
0.41630244532055655	64.06932918841002
0.41769012013829176	83.0120716909763
0.41908242053875283	69.24282887756715
0.4204793619405487	37.02190754709209
0.42188095981368384	85.64918177914346
0.42328722967972954	232.95509161794925
0.4246981871119953	385.60869508051
0.42611384773570193	521.1336217697174
0.4275342272281543	662.7942697666011
0.4289593413189149	818.1374742447048
0.43038920578997797	990.3811339702148
0.4318238364759446	1181.543436623334
0.43326324926419774	1393.4419414237739
0.4347074600950785	1627.3164395320318
0.4361564849620621	1884.5359919032699
0.43761033991193565	2166.751007987215
0.4390690410449755	2475.249488554994
0.44053260451512544	2812.5728006806694
0.4420010465301759	3179.3159806648587
0.44347438335194317	3579.588770496521
0.4449526312964497	4016.4533657774346
0.44643580673410455	4485.880469623471
0.44792392608988496	4989.749887604394
0.4494170058435179	5531.41403057923
0.450915062529663	6107.973243021761
0.4524181127380953	6684.045387167509
0.45392617311388894	7007.636184589751
0.45543926035760196	6799.301375802945
0.45695739122546064	5922.692822992876
0.4584805825295456	4048.0896769351307
0.46000885113797746	3414.4561688295485
0.46154221397510403	3136.580738213408
0.4630806880216877	2771.357692755533
0.4646242903150934	2373.6791292900193
0.4661730379494771	2014.210097163369
0.4677269480759754	1679.3799261636743
0.4692860379028953	1322.7952195607375
0.47085032469590504	972.5367923425074
0.4724198257782247	672.692098513764
0.47399455853081884	449.5126289514686
0.4755745403925883	301.59875490852454
0.4771597888605636	210.72339328326953
0.47875032149009894	156.48246816607437
0.4803461558950659	119.77835892625147
0.48194730974804956	92.9862238546916
0.48355380078054305	73.88715288128554
0.4851656467831449	60.677972971758386
0.48678286560575545	51.698714582828806
0.4884054751577746	45.28454700452797
0.4900334934083006	40.421219323184395
0.4916669383863283	36.239798481986114
0.4933058281809494	32.309083453096456
0.4949501809415526	28.590971678015862
0.4966000148780246	24.9683588748603
0.4982553482609513	21.277336817219066
0.4999161994218212	17.730927554377544
0.5015825867532273	14.692972126715745
0.5032545287090715	12.489900987331614
0.5049320438047684	11.39040535602628
0.506615150617451	11.091977239008928
0.5083038677861758	11.015410380851439
0.5099982140121297	11.0098497335664
0.5116982080588369	10.978562054735702
0.5134038687523664	10.943507515619215
0.515115214981541	10.98602140072035
0.5168322656981462	11.073866291019929
0.5185550399171401	11.193174365918747
0.5202835567168639	11.290724770266552
0.5220178352392535	11.367314788309944
0.5237578946900511	11.421718634572565
0.525503754339018	11.481793285619323
0.527255433520148	11.541550827079012
0.5290129516318819	11.605137534138484
0.5307763281373216	11.684379989811536
0.532545582564446	11.787636551854504
0.5343207345063276	11.902502595468933
0.5361018036213486	12.017989126140257
0.5378888096334199	12.137034721585389
0.5396817723321979	12.226106678184951
0.5414807115733054	12.328628814743409
0.5432856472785497	12.523908185966818
0.545096599436145	12.6803231546944
0.5469135881009322	12.80831659197251
0.5487366333946019	13.021566112296693
0.5505657555059172	13.213510533785238
0.5524009746909371	13.40466737125774
0.5542423112732402	13.585890747973727
0.556089785644151	13.74468923405945
0.557943418262965	13.890888776526086
0.5598032296571749	14.011732538613352
0.5616692404226988	14.098261174713686
0.5635414712241079	14.1607957624556
0.5654199427948549	14.172444680511326
0.5673046759375044	14.005646364677235
0.569195691523963	13.833461941568816
0.5710930104957095	13.811262886070407
0.5729966538640286	13.616324925271591
0.5749066427102419	13.26793229260333
0.576822998185943	12.785274685367133
0.5787457415132294	12.192494894454805
0.5806748939849402	11.35713583816591
0.58261047696489	10.288423173162649
0.5845525118881064	8.82648157327595
0.5865010202610669	6.081606583231491
0.588456023661937	2.378108530095376
0.5904175437408102	2.276193069230666
0.5923856022199464	7.143439255567767
0.5943602208940129	12.783902201023771
0.5963414216303263	18.13601016307136
0.598329226369094	23.924406070702236
0.6003236571236578	30.61513427018837
0.6023247359807368	38.464015571415814
0.6043324851006725	47.81613147821647
0.6063469267176749	58.770424080502615
0.6083680831400672	71.05760684759302
0.610395976750534	85.30748217915685
0.6124306300063692	101.75466285085818
0.6144720654397238	120.8124278333441
0.6165203056578563	142.56217724037225
0.6185753733433824	167.59431235251756
0.6206372912545272	196.16630936966482
0.6227060822253756	228.46788159601329
0.6247817691661269	264.011407765514
0.6268643750633474	302.82989600411804
0.6289539229802253	351.5467428229458
0.6310504360568261	408.42346326312986
0.6331539375103489	469.48272470980993
0.6352644506353834	544.8972073587
0.6373819988041681	625.2290675087628
0.6395066054668487	714.5372008962024
0.6416382941517382	819.7590732821466
0.6437770884655775	927.9793825573978
0.6459230120937961	1025.0483013603512
0.6480760888007754	1163.7173444668063
0.6502363424301114	1354.7880361965258
0.6524037969048785	1547.038817905853
0.6545784762278948	1766.3764852673505
0.6567604044819878	1993.5861556992354
0.6589496058302612	2271.093295643342
0.6611461045163621	2590.747946502181
0.66334992486475	2958.022839813067
0.6655610912809659	3351.0279284975113
0.6677796282519025	3761.673159786534
0.6700055603460756	4016.4098974440726
0.6722389122138959	4476.912657127209
0.6744797085879423	5205.108388730755
0.6767279742832354	5715.360289445807
0.6789837341975129	6108.916650743655
0.6812470133115047	6350.978189679878
0.6835178366892097	6380.968047344912
0.6857962294781739	6156.415091828079
0.6880822169097679	5698.493964187284
0.6903758242994671	5017.706095334035
0.6926770770471321	4233.304279876976
0.6949860006372892	3894.210304949221
0.6973026206394136	3844.1514809457644
0.6996269627082117	3698.758187487526
0.7019590525839058	3555.7723034773935
0.7042989160925188	3605.473924439934
0.7066465791461606	3737.01873329145
0.7090020677433145	3853.598082262143
0.7113654079691256	3912.8946096764053
0.7137366259956894	3897.382274702404
0.7161157480823418	3420.419926456782
0.7185028005759496	3058.3313211781656
0.7208978099112028	3257.7094344387065
0.7233008026109069	3310.0687732232864
0.7257118052862767	3089.583534851796
0.728130844637231	3116.8726921633975
0.7305579474526884	3049.204718292325
0.7329931406108642	3034.4443308300615
0.7354364510795671	3014.511322432025
0.7378879059164991	3137.1652302040384
0.7403475322695541	3280.9555212585315
0.7428153573771193	3405.406970789882
0.7452914085683765	3441.866934352015
0.7477757132636044	3531.2633322898923
0.7502682989744831	3551.4058806287826
0.7527691933043982	3524.9742725275173
0.7552784239487462	3505.8877109322552
0.7577960186952422	3450.791334185149
0.7603220054242263	3349.669743012442
0.7628564121089738	2870.662669258923
0.7653992668160038	1697.897046307332
0.7679505977053904	1161.7525809105675
0.7705104330310751	1623.4927957742523
0.7730788011411788	2741.024876617943
0.7756557304783162	3750.2277888934536
0.7782412495799106	4400.412001940982
0.7808353870785104	4930.510443118124
0.7834381717021055	5964.881485625631
0.7860496322744459	6681.380735119671
0.7886697977153608	7600.503273139287
0.7912986970410787	8918.315647652422
0.793936359364549	9292.817473079267
0.7965828138957642	10407.461526975912
0.7992380899420836	12897.72143413882
0.8019022169085571	14904.655483170236
0.8045752242982523	16891.171365123762
0.80725714171258	18409.476611278904
0.809947998851622	18337.43856964133
0.8126478255144608	17884.512599271584
0.8153566515995091	17994.698626421745
0.8180745071048409	22259.192986179576
0.8208014221285237	28508.34603155315
0.8235374268689521	30846.807550737343
0.8262825516251822	36760.4058945826
0.8290368267972661	40361.44946620464
0.8318002828865904	43319.988724340416
0.8345729504962124	46790.96419602946
0.8373548603311998	51926.005024507285
0.8401460431989706	62393.78260684265
0.8429465300096338	70057.40484400942
0.8457563517763327	79515.01176686317
0.8485755396155872	89491.86556900872
0.8514041247476393	95560.95044521004
0.8542421384967981	107532.65364311452
0.8570896122917875	124468.33133681529
0.8599465776660935	138474.0753770718
0.8628130662583139	151983.49210869308
0.8656891098125085	165658.45686287858
0.8685747401785502	178897.64606291408
0.8714699893124788	192768.5282946156
0.8743748892768537	208519.89933909004
0.8772894722411099	224716.07400146598
0.8802137704819137	238650.1500691192
0.8831478163835201	248573.90462231578
0.8860916424381319	239089.40849811462
0.8890452812462591	196580.11256130307
0.89200876551708	155458.3305845397
0.8949821280688037	160392.26669760884
0.8979654018290332	162976.57119543606
0.90095861983513	188409.10662221594
0.9039618152345804	281999.9894470764
0.9069750212853626	300097.2488751049
0.9099982713563137	303803.63148317084
0.9130315989275016	351835.94595722586
0.9160750375905932	393674.5088884953
0.9191286210492287	448182.9772030676
0.9221923831193928	518110.22646508896
0.9252663577297908	436750.6126967695
0.9283505789222235	181864.57963596794
0.9314450808519644	47681.89539167354
0.9345498977881376	67199.79517143084
0.9376650641140981	165089.3196929827
0.940790614327812	298422.9669516573
0.9439265830422381	265631.3979216082
0.9470730049857122	210291.00634783425
0.9502299150023314	178745.8578657332
0.9533973480523392	213466.52519955172
0.9565753392125138	199442.37639949095
0.9597639236765556	207755.88887156124
0.9629631367554774	212622.61357523917
0.9661730138779958	362387.3312633756
0.9693935905909224	551477.3358651263
0.972624902559559	675714.9966520803
0.9758669855680909	678053.2458448972
0.9791198755199847	788050.4211760914
0.9823836084383848	900069.9963555022
0.9856582204665127	1031968.4612983224
0.9889437478680678	1242918.6684533833
0.9922402270276282	1369171.803566912
0.9955476944510537	1476164.9381209
0.9988661867658906	1345652.9212758653
1.002195740721777	1181446.5430492721
1.0055363931908496	1446642.0121899974
1.0088881811681525	1519840.0285181054
1.0122511417720463	1530875.0381282847
1.01562531224462	1386097.5699957258
1.019010729952102	1263071.1555413033
1.0224074323852759	1308548.3374093273
1.0258154571598936	1512487.188637742
1.0292348420170931	1647761.3694024992
1.0326656248238169	1543704.4905781168
1.0361078435732296	1461310.9067035946
1.0395615363851405	1621280.7940776008
1.0430267415064245	1833245.250574975
1.0465034973114462	1953589.2861341345
1.0499918423024843	1985916.967694769
1.0534918151101593	2092885.6280660923
1.05700345449386	2201164.3217225536
1.0605267993421728	2228545.132323392
1.0640618886733135	2214628.4719374473
1.067608761635558	2162578.782849076
1.0711674575076766	2112532.818155588
1.0747380156993689	2046266.712364169
1.0783204757517002	1962948.3947068406
1.0819148773375393	1890817.1798827597
1.085521260261998	1786061.6473443324
1.0891396644628712	1625422.5008271364
1.092770130011081	1350328.7164250617
1.0964126971111179	1017010.0480533453
1.1000674061014886	765081.387276439
1.10373429745516	499295.2980517352
1.1074134117800107	248198.55689220698
1.1111047898192774	107271.4741782346
1.1148084724520084	73233.08010720617
1.1185245006935154	69746.89858697263
1.1222529156958272	81668.6643872121
1.1259937587481466	101359.48943834967
1.1297470712773072	123767.63414269869
1.1335128948482316	74212.57062564226
1.1372912711643925	124923.6679407607
1.1410822420682738	209655.84420135483
1.1448858495418348	127298.4321442122
1.1487021357069744	70420.1426517377
1.1525311428259977	55402.39550902319
1.1563729133020846	25825.360564794104
1.1602274896797582	30375.004427660675
1.1640949146453576	65331.93036440916
1.1679752310275089	109137.6880848697
1.1718684817976006	82073.65451184145
1.1757747100702594	83664.86838344688
1.1796939591038271	177475.7040637572
1.1836262723008397	226766.30784442584
1.1875716932085094	289744.49738078564
1.1915302655192046	345784.68459172733
1.1955020330709352	414313.3329291804
1.1994870398478386	542797.2986603886
1.2034853299806647	658522.9470477663
1.207496947747267	700115.2698786068
1.2115219375730912	753690.949763287
1.2155603440316685	886132.9278771301
1.2196122118451074	1012056.7628463911
1.2236775858845912	1152416.6621259244
1.2277565111708733	1406821.112341717
1.2318490328747762	1594000.9332185993
1.2359551963176922	1809945.5847531124
1.2400750469720847	2120956.789037763
1.2442086304619917	2433402.2478201487
1.248355992563532	2705019.9928216836
1.2525171792054102	2884202.9226663155
1.2566922364694284	3156224.9004434925
1.2608812105909932	3555440.86449369
1.2650841479596302	3871950.58332127
1.2693010951194956	4017630.721782948
1.273532098769894	3768981.354375917
1.2777772057657937	3299547.870554088
1.2820364631183463	2846859.715709063
1.2863099179954076	2344420.748724918
1.2905976177220593	2013093.9432086481
1.2948996097811327	1895669.1733278646
1.2992159418137368	1777181.4421813644
1.3035466616197826	1542911.320115687
1.3078918171585154	1347330.2685031043
1.3122514565490437	1063315.0169043113
1.3166256280708741	949603.9717072501
1.3210143801644436	953306.4791943833
1.3254177614316587	793434.6030802814
1.329835820636431	430122.46277008014
1.3342686067052192	143320.68273175962
1.33871616872757	42169.5157559281
1.343178555956662	7018.9376404565355
1.347655817809851	2258.6557253236597
1.352148003869217	1692.277750886229
1.3566551638821147	492.19432946693513
1.3611773477617217	181.21579380785843
1.3657146055875944	277.6307171175501
1.3702669876062197	409.6952551140223
1.3748345442315741	1539.5556158596908
1.3794173260456792	2042.1131252171795
1.384015383799165	559.3419560730518
1.388628768411829	1135.925973413351
1.3932575309732018	1979.9166304904409
1.3979017227431125	1989.0022955981194
1.4025613951522564	2869.144358860869
1.407236599802764	2806.1052212318723
1.4119273884687735	3684.3270483702
1.4166338130970026	2934.0966372186663
1.4213559258073263	3066.502799195316
1.4260937788933508	4413.447414582489
1.4308474248229952	7558.5680829541125
1.4356169162390722	10336.789615442889
1.4404023059598692	18171.37092850444
1.4452036469797356	26465.893946695425
1.450020992469668	42534.04750092567
1.4548543957779003	60312.24143160406
1.4597039104304934	77291.78111968267
1.4645695901319284	60975.59966248981
1.469451488765702	32008.216072921852
1.4743496603949209	17643.38665462562
1.479264159262904	19491.49716003555
1.4841950397937806	19379.42953325075
1.4891423565930935	19195.673773182913
1.4941061644484037	25363.882310961664
1.4990865183298985	40281.16938992757
1.5040834733909982	49237.5021631942
1.5090970849689684	45111.208404910416
1.5141274085855316	23598.29913791793
1.5191744999474837	39829.29091479044
1.5242384149473087	76483.20146201811
1.5293192096638	123501.41958347261
1.5344169403626793	155429.80215631414
1.5395316634972218	178497.25657035288
1.544663435708879	231126.72273324933
1.5498123138279087	316805.22468879394
1.554978354874002	437229.02039741236
1.5601616160569156	558743.3971419407
1.5653621547771055	797221.4554177875
1.5705800286263625	1101218.9071444524
1.5758152953884506	1288803.798273768
1.5810680130397454	1476431.3667902888
1.5863382397498782	1594429.879721283
1.5916260338823778	1671322.4750822948
1.5969314539953192	1593474.6946589034
1.6022545588419705	1338976.0259517771
1.6075954073714436	1010170.0247050537
1.6129540587293487	683057.3852280275
1.6183305722584467	402423.2542627215
1.6237250074993084	223476.22227405317
1.6291374241909726	155329.77854186817
1.6345678822716092	118661.77733747393
1.6400164418791816	108767.95269532943
1.6454831633521123	134156.99693876336
1.6509681072299527	156699.09435138424
1.6564713342540527	192655.43991019455
1.6619929053682332	224889.8142539175
1.6675328817194608	106545.67320353816
1.6730913246585257	72532.24991839983
1.6786682957407209	136289.8583292276
1.6842638567265233	147791.13499661308
1.6898780695822784	97320.21376331711
1.6955109964808863	60414.98344241676
1.7011626998024894	51535.548177157885
1.7068332421351646	85846.88727236107
1.7125226862756153	111695.2672611782
1.7182310952298672	142598.3305086267
1.7239585322139668	137759.20079480155
1.7297050606546804	98008.79258754739
1.7354707441901962	87922.97354100995
1.7412556466708302	98152.62881113453
1.747059832159733	127121.81333455941
1.752883364933599	144107.6329513679
1.7587263094833776	115999.78653842615
1.7645887305149892	89930.20779872022
1.7704706929500391	64687.697893372126
1.7763722619265396	52992.90511682057
1.7822935027996283	46662.103952915815
1.7882344811422937	33126.88123788286
1.7941952627461015	18156.097572565242
1.8001759136219222	15649.674792123838
1.8061765000006618	9589.35265422198
1.8121970883339975	10661.99230158985
1.818237745295111	12935.514339771571
1.8242985377794283	15959.648160632041
1.8303795329053596	7669.035900224876
1.8364807980150446	3994.8321945683115
1.8426024006750947	7398.985732466829
1.8487444086773455	11732.414899933492
1.8549068900396033	10113.904693382772
1.861089913006402	4068.314963165173
1.8672935460497566	1638.6322557606943
1.873517857869923	2184.1819545959497
1.879762917396156	10319.337407689682
1.8860287937874767	18875.594823425843
1.8923155564334353	24932.291774375393
1.8986232749548801	22390.20933182256
1.9049520192047298	9281.926331953027
1.9113018592687456	7552.750009411191
1.9176728654663082	6578.779057470146
1.9240651083511964	6833.411433893364
1.9304786587123668	3302.779304106766
1.9369135875747419	1268.7066918249197
1.9433699661999908	1620.4068441203735
1.9498478660873244	3209.2115317357984
1.9563473589742824	5313.310755874783
1.9628685168375302	9776.99921134725
1.9694114118936552	15212.8398250578
1.9759761165999676	18191.16743076588
1.9825627036553009	22236.357680806726
1.9891712460008188	27322.684065685826
1.9958018168208218	32111.510460206613
2.002454489543558	33666.61669005111
2.0091293378420367	32170.529436188182
2.0158264356348434	30197.308671502862
2.02254585708696	27469.974679214756
2.029287676610583	41018.93256646884
2.036051968865952	46965.853787990134
2.042838808762172	53675.9756554009
2.049648271458046	63290.44827645745
2.0564804323629065	70519.53445677459
2.0633353671374497	76413.79910892154
2.0702131516945745	82366.87524202236
2.0771138622002234	81578.66616034767
2.084037575074224	81671.45400010835
2.0909843669911385	81542.80505704969
2.097954314881109	79643.22314147883
2.1049474959307126	79472.41947342339
2.1119639875838154	79936.90844645596
2.1190038675424283	78116.79060581725
2.12606721376757	75852.96490401089
2.1331541044801288	71607.40045642655
2.140264618161729	68724.23965956652
2.147398833555602	66553.20961426503
2.154556829667454	58012.47376703419
2.1617386857663456	50193.16189049064
2.1689444813855667	42701.76610195759
2.176174296323519	36263.35986209225
2.1834282106445975	32477.148994361643
2.19070630468008	20992.33028361828
2.1980086590290138	7455.024608068105
2.2053353545591103	5304.183256675871
2.2126864724076407	10607.998515145155
2.220062093982333	7614.353683189193
2.2274623009622747	6049.095651638842
2.2348871752988155	5516.644983433032
2.2423367992164787	3711.155324353085
2.2498112552138667	2418.5066344067036
2.25731062606458	2439.2421864593066
2.2648349948181288	1134.5638941968784
2.272384444800856	1246.2417432895436
2.2799590596168593	2017.1962653167084
2.2875589231489153	2041.596992252791
2.295184119559412	1755.881391339299
2.302834733291277	3677.0797635331446
2.3105108490689146	7144.244328732308
2.3182125518991445	3746.9285457796236
2.325939927072142	1869.9779344699612
2.3336930601623824	1693.7180578900463
2.341472037029591	1296.1901778207407
2.3492769438196897	1323.745041707761
2.3571078669657557	3490.0606541961574
2.364964893188975	5342.472179353846
