#wavelength (micron)	surface_flux (erg / (cm2 micron s))
0.40133895199999997	0.042838467388024826
0.40267674850666674	0.038973675388740116
0.40401900433502225	0.006677931450713055
0.4053657343494724	0.007317883828608711
0.4067169534639707	0.06136415648787424
0.40807267664218394	0.27906967821393036
0.4094329188976579	0.8520672430798808
0.41079769529398347	2.032624312864259
0.41216702094496344	4.129830176730696
0.41354091101477997	7.474794689088128
0.4149193807181627	12.297478998697098
0.41630244532055655	18.43994832669772
0.41769012013829176	23.563129835896422
0.41908242053875283	18.64411493572738
0.4204793619405487	7.706537151572171
0.42188095981368384	19.569970258093463
0.42328722967972954	62.910237611323126
0.4246981871119953	107.42535429061702
0.42611384773570193	145.58067560303084
0.4275342272281543	185.73582372571536
0.4289593413189149	230.36979411981113
0.43038920578997797	280.63554212751245
0.4318238364759446	337.31312241491844
0.43326324926419774	401.3067733423268
0.4347074600950785	473.13290079683316
0.4361564849620621	553.3691659737573
0.43761033991193565	642.7245704136197
0.4390690410449755	741.6828650934935
0.44053260451512544	852.1849886645991
0.4420010465301759	974.9146976494764
0.44347438335194317	1111.901849762267
0.4449526312964497	1264.9147707984441
0.44643580673410455	1429.8563079317532
0.44792392608988496	1607.8491051373849
0.4494170058435179	1803.2009683187246
0.450915062529663	2016.095197766316
0.4524181127380953	2228.534764458442
0.45392617311388894	2262.6162359308555
0.45543926035760196	1882.0414022013229
0.45695739122546064	1512.5483018810105
0.4584805825295456	774.9338447876395
0.46000885113797746	515.2444997849896
0.46154221397510403	446.85089584892097
0.4630806880216877	369.56599430476166
0.4646242903150934	297.90224658726817
0.4661730379494771	240.46038783505142
0.4677269480759754	193.61239959157612
0.4692860379028953	151.2319435342298
0.47085032469590504	114.72853041158227
0.4724198257782247	85.76720947301013
0.47399455853081884	64.28826179177999
0.4755745403925883	49.12262547903762
0.4771597888605636	38.67896414140813
0.47875032149009894	31.570528375818203
0.4803461558950659	25.723954894692387
0.48194730974804956	20.535938934327064
0.48355380078054305	16.22279829973687
0.4851656467831449	12.894655780212089
0.48678286560575545	10.570867138687644
0.4884054751577746	8.91743573008063
0.4900334934083006	7.665479920770945
0.4916669383863283	6.6554999056199575
0.4933058281809494	5.771729976746089
0.4949501809415526	4.997226159001712
0.4966000148780246	4.295477714365792
0.4982553482609513	3.603146583330802
0.4999161994218212	2.974087688702428
0.5015825867532273	2.451127841215513
0.5032545287090715	2.070882266351124
0.5049320438047684	1.9111951664190714
0.506615150617451	1.9256694361714262
0.5083038677861758	1.9477869869405597
0.5099982140121297	1.984368221410219
0.5116982080588369	2.027407511872048
0.5134038687523664	2.069050196051601
0.515115214981541	2.1223248423738226
0.5168322656981462	2.1742368496057827
0.5185550399171401	2.2398058404874486
0.5202835567168639	2.2997639099900336
0.5220178352392535	2.353731652465452
0.5237578946900511	2.40347285289856
0.525503754339018	2.4582963335121075
0.527255433520148	2.515065511873252
0.5290129516318819	2.5737555229643374
0.5307763281373216	2.638460100745391
0.532545582564446	2.711013519619159
0.5343207345063276	2.7866653088380295
0.5361018036213486	2.861998949989215
0.5378888096334199	2.9411941642090067
0.5396817723321979	3.0148335489368647
0.5414807115733054	3.091944132277396
0.5432856472785497	3.198426960356763
0.545096599436145	3.2892467988142027
0.5469135881009322	3.369503371343548
0.5487366333946019	3.4980466288432237
0.5505657555059172	3.622250314060446
0.5524009746909371	3.7423451583226983
0.5542423112732402	3.8571965585023884
0.556089785644151	3.97006363616831
0.557943418262965	4.07929013791947
0.5598032296571749	4.178887165582852
0.5616692404226988	4.264616336416963
0.5635414712241079	4.340621709396082
0.5654199427948549	4.392147532598756
0.5673046759375044	4.356467796396305
0.569195691523963	4.313272402847117
0.5710930104957095	4.3416171884719255
0.5729966538640286	4.313293376186136
0.5749066427102419	4.209321393611397
0.576822998185943	4.0479446429115935
0.5787457415132294	3.8733992666109414
0.5806748939849402	3.6236761359140868
0.58261047696489	3.298143148463015
0.5845525118881064	2.8321640439039437
0.5865010202610669	1.90813627194781
0.588456023661937	0.7069874454422398
0.5904175437408102	0.665428583387794
0.5923856022199464	2.221289338254524
0.5943602208940129	4.132506931965703
0.5963414216303263	5.934096846032423
0.598329226369094	7.859855236768209
0.6003236571236578	10.167899168891669
0.6023247359807368	12.928943833795776
0.6043324851006725	16.213961941297985
0.6063469267176749	19.9909736415736
0.6083680831400672	24.13020629084967
0.610395976750534	28.8067874351806
0.6124306300063692	33.990788126967466
0.6144720654397238	39.882117058765076
0.6165203056578563	46.42336548116119
0.6185753733433824	53.84780664066434
0.6206372912545272	62.20660210130676
0.6227060822253756	71.54802019927052
0.6247817691661269	81.6728802912967
0.6268643750633474	92.13545473736536
0.6289539229802253	105.60924454300765
0.6310504360568261	121.63225553068064
0.6331539375103489	138.16277825668863
0.6352644506353834	159.72751645616862
0.6373819988041681	180.73587483851676
0.6395066054668487	202.75407509590903
0.6416382941517382	230.62316455399002
0.6437770884655775	255.87277830720433
0.6459230120937961	267.8208011202667
0.6480760888007754	300.574256706033
0.6502363424301114	359.29234180853683
0.6524037969048785	411.13195776217384
0.6545784762278948	467.6616858883367
0.6567604044819878	523.4584088806464
0.6589496058302612	600.7365477784931
0.6611461045163621	687.5795028580463
0.66334992486475	795.6644057435399
0.6655610912809659	908.5606979516756
0.6677796282519025	1039.4579966577091
0.6700055603460756	1124.8471141543994
0.6722389122138959	1267.2382086179264
0.6744797085879423	1484.6721080414366
0.6767279742832354	1632.4622363827693
0.6789837341975129	1747.0855573705487
0.6812470133115047	1820.5152379414562
0.6835178366892097	1836.4473971861923
0.6857962294781739	1772.0877910104505
0.6880822169097679	1637.4334350707995
0.6903758242994671	1422.278408703095
0.6926770770471321	1142.2562845715888
0.6949860006372892	1087.3076718717357
0.6973026206394136	1168.4669121529805
0.6996269627082117	1147.0412792069826
0.7019590525839058	1077.278221053306
0.7042989160925188	1115.749685979589
0.7066465791461606	1187.3508743286898
0.7090020677433145	1236.2946644878211
0.7113654079691256	1265.1362357343935
0.7137366259956894	1257.895537125511
0.7161157480823418	1026.4002926292378
0.7185028005759496	849.9819904951497
0.7208978099112028	936.2058956756053
0.7233008026109069	1018.4301129878813
0.7257118052862767	967.6164400630815
0.728130844637231	1021.9532070057063
0.7305579474526884	991.6918538273526
0.7329931406108642	998.2531885549067
0.7354364510795671	1020.9563225917266
0.7378879059164991	1158.364800138847
0.7403475322695541	1328.826167626568
0.7428153573771193	1464.0662374380636
0.7452914085683765	1536.6580683298398
0.7477757132636044	1646.388558480653
0.7502682989744831	1697.2046765465836
0.7527691933043982	1736.105206107528
0.7552784239487462	1789.6913540613125
0.7577960186952422	1825.7488320609568
0.7603220054242263	1807.8006589456968
0.7628564121089738	1539.5468656800585
0.7653992668160038	854.105018259167
0.7679505977053904	545.6927507274373
0.7705104330310751	798.8593746970203
0.7730788011411788	1446.0288988713537
0.7756557304783162	2064.2575080167912
0.7782412495799106	2416.544049303863
0.7808353870785104	2613.23678125749
0.7834381717021055	3039.1628247828435
0.7860496322744459	3212.9809138058768
0.7886697977153608	3570.9927086279117
0.7912986970410787	4241.648082362417
0.793936359364549	4427.523227917203
0.7965828138957642	4722.375357377245
0.7992380899420836	5497.444971332597
0.8019022169085571	6220.612933987003
0.8045752242982523	6876.12265084816
0.80725714171258	7172.3068745646715
0.809947998851622	6336.957920891706
0.8126478255144608	5287.6615129504235
0.8153566515995091	4704.155433752632
0.8180745071048409	6123.806175854256
0.8208014221285237	8619.982683241635
0.8235374268689521	9100.280952259198
0.8262825516251822	11068.230946536414
0.8290368267972661	11486.817610595475
0.8318002828865904	11650.108384095984
0.8345729504962124	11894.152115212064
0.8373548603311998	12868.824572475833
0.8401460431989706	16988.784162252985
0.8429465300096338	18783.676796068707
0.8457563517763327	21536.051815985866
0.8485755396155872	24868.719499437055
0.8514041247476393	26865.822506379423
0.8542421384967981	30372.59161981983
0.8570896122917875	35056.29147471885
0.8599465776660935	39158.37263174926
0.8628130662583139	42781.413297215215
0.8656891098125085	46260.73779848695
0.8685747401785502	49243.639181216706
0.8714699893124788	52252.884070460685
0.8743748892768537	56059.535953845785
0.8772894722411099	59956.33098221452
0.8802137704819137	62293.69679744135
0.8831478163835201	62566.275992371506
0.8860916424381319	54820.177115669125
0.8890452812462591	35552.89972013939
0.89200876551708	20710.873802676197
0.8949821280688037	23645.77726214954
0.8979654018290332	24632.408165842957
0.90095861983513	27479.426212928065
0.9039618152345804	48933.00994013838
0.9069750212853626	49006.28321312222
0.9099982713563137	49587.56697288888
0.9130315989275016	65901.61490806354
0.9160750375905932	75894.57350478042
0.9191286210492287	95070.17780547147
0.9221923831193928	127693.78132379758
0.9252663577297908	104547.54234486654
0.9283505789222235	38670.40370078485
0.9314450808519644	6454.96917015462
0.9345498977881376	6916.478797549853
0.9376650641140981	20665.701577216736
0.940790614327812	44373.33670293943
0.9439265830422381	43606.28894751082
0.9470730049857122	37507.32177435065
0.9502299150023314	25627.0172720362
0.9533973480523392	27349.975197567674
0.9565753392125138	27970.474452317936
0.9597639236765556	28158.473828450056
0.9629631367554774	23036.553931132406
0.9661730138779958	57868.59812491907
0.9693935905909224	107680.63254829825
0.972624902559559	130820.93635005438
0.9758669855680909	118004.27746459808
0.9791198755199847	132932.78400367574
0.9823836084383848	141435.09984367987
0.9856582204665127	173601.4993247713
0.9889437478680678	230546.99247982114
0.9922402270276282	249257.51762309292
0.9955476944510537	269173.8425748117
0.9988661867658906	260254.82281259136
1.002195740721777	241960.9741606618
1.0055363931908496	300248.6461644212
1.0088881811681525	331028.63812382834
1.0122511417720463	343371.06006095395
1.01562531224462	278364.15746659564
1.019010729952102	222602.252186016
1.0224074323852759	233850.45909365528
1.0258154571598936	317994.36362527404
1.0292348420170931	369198.99654480856
1.0326656248238169	327605.2019037597
1.0361078435732296	281703.1535129758
1.0395615363851405	366957.4346182255
1.0430267415064245	505394.1455671455
1.0465034973114462	575681.2808949868
1.0499918423024843	583001.4150676109
1.0534918151101593	678140.4005879072
1.05700345449386	798121.6547213518
1.0605267993421728	849288.4041446588
1.0640618886733135	864570.2449848063
1.067608761635558	846672.0228301451
1.0711674575076766	834847.3954068226
1.0747380156993689	791889.8318434323
1.0783204757517002	728663.2938906858
1.0819148773375393	690436.3076821902
1.085521260261998	634868.8566182203
1.0891396644628712	559814.559451358
1.092770130011081	428550.38613891735
1.0964126971111179	272784.1772773815
1.1000674061014886	191574.80186163555
1.10373429745516	122902.35922377523
1.1074134117800107	44186.27526878035
1.1111047898192774	15205.670129132224
1.1148084724520084	11313.320108929389
1.1185245006935154	10607.316716736017
1.1222529156958272	12683.15727945524
1.1259937587481466	12754.571005742799
1.1297470712773072	13667.489207326505
1.1335128948482316	7318.893021592664
1.1372912711643925	14780.593985262669
1.1410822420682738	28221.003678201945
1.1448858495418348	18038.03092357414
1.1487021357069744	7057.520195907493
1.1525311428259977	4207.270419910788
1.1563729133020846	1382.853425377565
1.1602274896797582	1156.8576721885152
1.1640949146453576	4940.375661560813
1.1679752310275089	12851.085837364617
1.1718684817976006	7641.560609299475
1.1757747100702594	4722.912434429837
1.1796939591038271	14293.191616312419
1.1836262723008397	17623.96967490736
1.1875716932085094	21825.82169819281
1.1915302655192046	26933.67690420954
1.1955020330709352	39249.97945067829
1.1994870398478386	68718.8915779256
1.2034853299806647	91957.34641142888
1.207496947747267	91932.25590279429
1.2115219375730912	98854.10036359604
1.2155603440316685	125791.62368574999
1.2196122118451074	161426.89605750647
1.2236775858845912	202329.91505069306
1.2277565111708733	303629.5885355592
1.2318490328747762	383591.1812237628
1.2359551963176922	479578.09930896293
1.2400750469720847	641877.8855940633
1.2442086304619917	814611.3121914789
1.248355992563532	952068.2550305143
1.2525171792054102	1010402.9439913996
1.2566922364694284	1144604.1682358158
1.2608812105909932	1373650.257689371
1.2650841479596302	1545617.4750726945
1.2693010951194956	1640250.9877361427
1.273532098769894	1443352.9740539163
1.2777772057657937	1093947.6264051797
1.2820364631183463	829260.1371948837
1.2863099179954076	563550.604011072
1.2905976177220593	418632.31634147855
1.2948996097811327	377583.6494985065
1.2992159418137368	343454.7037738562
1.3035466616197826	285418.8505038048
1.3078918171585154	222028.38992737254
1.3122514565490437	130158.79599187683
1.3166256280708741	121292.51603305155
1.3210143801644436	137448.80601840018
1.3254177614316587	114942.32840426546
1.329835820636431	57310.202568234636
1.3342686067052192	19795.13331668426
1.33871616872757	6857.702947936888
1.343178555956662	1422.2109340523841
1.347655817809851	311.8153670476375
1.352148003869217	219.85066571384587
1.3566551638821147	65.13751407852446
1.3611773477617217	16.95881177340185
1.3657146055875944	17.307676474733565
1.3702669876062197	23.842094824951506
1.3748345442315741	104.0185739704855
1.3794173260456792	152.18093847610317
1.384015383799165	43.007217989862916
1.388628768411829	88.36757496286403
1.3932575309732018	170.73139920517485
1.3979017227431125	174.75728933208288
1.4025613951522564	340.5836702059409
1.407236599802764	351.19616941186115
1.4119273884687735	490.1116297770684
1.4166338130970026	347.9636788556111
1.4213559258073263	359.8189154496864
1.4260937788933508	577.4295891819177
1.4308474248229952	867.7062049094795
1.4356169162390722	1188.6850561982092
1.4404023059598692	3169.282877199733
1.4452036469797356	4786.516374326483
1.450020992469668	6016.322700544916
1.4548543957779003	7529.522421183991
1.4597039104304934	9325.849865691083
1.4645695901319284	7817.138952638163
1.469451488765702	3557.818188685893
1.4743496603949209	1062.6418972518056
1.479264159262904	1084.8542609049061
1.4841950397937806	1079.773636136185
1.4891423565930935	1120.0499134878849
1.4941061644484037	1843.7628460705128
1.4990865183298985	3025.6124800962293
1.5040834733909982	3032.8184984805644
1.5090970849689684	3232.854864477981
1.5141274085855316	1085.213089959931
1.5191744999474837	2399.60989541641
1.5242384149473087	5991.59774717763
1.5293192096638	11812.102608255254
1.5344169403626793	13506.613255255523
1.5395316634972218	16258.742056418034
1.544663435708879	22354.40935450521
1.5498123138279087	36936.028899981364
1.554978354874002	61303.19572021519
1.5601616160569156	79837.478804531
1.5653621547771055	150614.05936613702
1.5705800286263625	266870.9142758181
1.5758152953884506	343058.902898392
1.5810680130397454	426601.93661376333
1.5863382397498782	489052.22901651467
1.5916260338823778	570298.0431031807
1.5969314539953192	533161.9377292969
1.6022545588419705	398058.18365244183
1.6075954073714436	259296.84543072648
1.6129540587293487	145585.22613889494
1.6183305722584467	71589.4973581665
1.6237250074993084	36058.677486167064
1.6291374241909726	23365.74188680512
1.6345678822716092	17170.57354314517
1.6400164418791816	11384.065900575419
1.6454831633521123	14431.043589370776
1.6509681072299527	16233.225760492423
1.6564713342540527	25031.189297515786
1.6619929053682332	36859.775513601584
1.6675328817194608	16614.5821808105
1.6730913246585257	5857.892761685152
1.6786682957407209	16700.340826861928
1.6842638567265233	22706.26836575917
1.6898780695822784	12864.789365599274
1.6955109964808863	4507.229670446889
1.7011626998024894	3995.2513881010655
1.7068332421351646	8802.78724905091
1.7125226862756153	12372.529419173048
1.7182310952298672	17891.187882776525
1.7239585322139668	16843.894603105193
1.7297050606546804	8283.371996794567
1.7354707441901962	8461.904064469874
1.7412556466708302	11574.999371195205
1.747059832159733	18996.54107636688
1.752883364933599	24717.27573726804
1.7587263094833776	18078.78008530744
1.7645887305149892	13587.541669160915
1.7704706929500391	9557.802292524499
1.7763722619265396	10616.381490690987
1.7822935027996283	9852.979707036107
1.7882344811422937	6400.576282469063
1.7941952627461015	3638.0570274581064
1.8001759136219222	3498.2294907062396
1.8061765000006618	1841.3947835469157
1.8121970883339975	1704.6888485078184
1.818237745295111	3028.7931963231476
1.8242985377794283	4765.836092574319
1.8303795329053596	1901.0260832015072
1.8364807980150446	628.9578571473884
1.8426024006750947	1680.5962282626135
1.8487444086773455	2761.4883164480425
1.8549068900396033	2230.3518559291897
1.861089913006402	821.2622495322007
1.8672935460497566	289.68101948067596
1.873517857869923	314.071753033886
1.879762917396156	2291.882407229219
1.8860287937874767	4574.504596653667
1.8923155564334353	5617.782470087897
1.8986232749548801	4989.485728243494
1.9049520192047298	1918.0249355773758
1.9113018592687456	1392.3944473164809
1.9176728654663082	1000.6320412764427
1.9240651083511964	1133.3736781331836
1.9304786587123668	444.554245885785
1.9369135875747419	92.81820791973094
1.9433699661999908	127.6315438244364
1.9498478660873244	257.30832797578597
1.9563473589742824	624.8461788331668
1.9628685168375302	1671.782635746065
1.9694114118936552	2767.2998706348417
1.9759761165999676	3564.134003772074
1.9825627036553009	4353.607524041557
1.9891712460008188	5592.588195627368
1.9958018168208218	7041.650437829065
2.002454489543558	7034.420503248681
2.0091293378420367	6126.723977681938
2.0158264356348434	5349.39925064799
2.02254585708696	4671.130784406291
2.029287676610583	8655.836542188217
2.036051968865952	9982.21382083251
2.042838808762172	12085.202957691887
2.049648271458046	15092.399768738313
2.0564804323629065	17874.706333732112
2.0633353671374497	21056.88223442944
2.0702131516945745	25087.507339060783
2.0771138622002234	24213.065363204707
2.084037575074224	24380.11472559885
2.0909843669911385	24461.208644203296
2.097954314881109	23717.151038495325
2.1049474959307126	24565.345971162536
2.1119639875838154	25577.404567852882
2.1190038675424283	24395.422319576315
2.12606721376757	23371.133188777254
2.1331541044801288	21439.638496867487
2.140264618161729	19321.035245008316
2.147398833555602	18240.51311010814
2.154556829667454	15151.208199288374
2.1617386857663456	11891.65507512952
2.1689444813855667	10387.894511304294
2.176174296323519	8834.080880407908
2.1834282106445975	7657.442074248119
2.19070630468008	4044.2347768140453
2.1980086590290138	938.982305321242
2.2053353545591103	764.0567139481781
2.2126864724076407	1724.923070694158
2.220062093982333	1104.0349938479055
2.2274623009622747	800.9856076272935
2.2348871752988155	637.585624158809
2.2423367992164787	339.1653107357792
2.2498112552138667	209.2982436552198
2.25731062606458	203.55838710560647
2.2648349948181288	78.4022526196176
2.272384444800856	111.413361432942
2.2799590596168593	233.9051228567627
2.2875589231489153	190.3353981919392
2.295184119559412	162.43338048553505
2.302834733291277	469.50023668162095
2.3105108490689146	967.7416567239851
2.3182125518991445	493.7946825629372
2.325939927072142	173.09804964180518
2.3336930601623824	158.01361464970756
2.341472037029591	91.83574030580374
2.3492769438196897	106.39123052166386
2.3571078669657557	473.03195400270505
2.364964893188975	777.5713593955147
