#wavelength (micron)	surface_flux (erg / (cm2 micron s))
0.40133895199999997	0.00029555359076819494
0.40267674850666674	0.0003485886727275184
0.40401900433502225	0.00011692300632744545
0.4053657343494724	0.0001352292277773652
0.4067169534639707	0.0006060287164398833
0.40807267664218394	0.001765381942861828
0.4094329188976579	0.003925753932192144
0.41079769529398347	0.007345679958716896
0.41216702094496344	0.012339277152188901
0.41354091101477997	0.01939959415942344
0.4149193807181627	0.028112625824279147
0.41630244532055655	0.03844749721961532
0.41769012013829176	0.048250660766565596
0.41908242053875283	0.04184801359309128
0.4204793619405487	0.023481976341017834
0.42188095981368384	0.046941983501951834
0.42328722967972954	0.11766660626190417
0.4246981871119953	0.1819989773910938
0.42611384773570193	0.23539408662915082
0.4275342272281543	0.29463321122565056
0.4289593413189149	0.3599952801260334
0.43038920578997797	0.4335408472829654
0.4318238364759446	0.5182071185663729
0.43326324926419774	0.6137586949995502
0.4347074600950785	0.7203685464135605
0.4361564849620621	0.8389876598416829
0.43761033991193565	0.967606860252982
0.4390690410449755	1.1002305225256312
0.44053260451512544	1.2507744495269058
0.4420010465301759	1.401855410714372
0.44347438335194317	1.5916480223244327
0.4449526312964497	1.8379628616580113
0.44643580673410455	2.097523603058371
0.44792392608988496	2.3876717743386857
0.4494170058435179	2.7402521084735745
0.450915062529663	3.144396867083673
0.4524181127380953	3.573643770804179
0.45392617311388894	3.8757549485960783
0.45543926035760196	3.8157079226729684
0.45695739122546064	3.75135707261045
0.4584805825295456	3.22443331524497
0.46000885113797746	3.065759064933203
0.46154221397510403	3.082909096812865
0.4630806880216877	3.002451600532786
0.4646242903150934	2.8756877762825437
0.4661730379494771	2.696523777484594
0.4677269480759754	2.4951852607701075
0.4692860379028953	2.2742710675870343
0.47085032469590504	2.062439219322982
0.4724198257782247	1.8486825227341823
0.47399455853081884	1.6265643471694051
0.4755745403925883	1.4444191606130183
0.4771597888605636	1.2922841172647472
0.47875032149009894	1.1741141916652045
0.4803461558950659	1.041233771161338
0.48194730974804956	0.888322715569895
0.48355380078054305	0.7279640726727166
0.4851656467831449	0.5749668191092258
0.48678286560575545	0.4878070863303983
0.4884054751577746	0.4319277102776374
0.4900334934083006	0.37996276074246355
0.4916669383863283	0.34129841126522276
0.4933058281809494	0.3068926224240127
0.4949501809415526	0.2753472710034763
0.4966000148780246	0.2462983810512806
0.4982553482609513	0.21176039990411064
0.4999161994218212	0.1811554259826604
0.5015825867532273	0.1515084734798443
0.5032545287090715	0.12359494536686783
0.5049320438047684	0.11736811309303602
0.506615150617451	0.1301533937052618
0.5083038677861758	0.1357985000531482
0.5099982140121297	0.14345104026421132
0.5116982080588369	0.15369885171099573
0.5134038687523664	0.1635224182043245
0.515115214981541	0.17441050722714657
0.5168322656981462	0.1843009184229348
0.5185550399171401	0.19734662097125136
0.5202835567168639	0.2094335767340924
0.5220178352392535	0.22009289092992815
0.5237578946900511	0.2293635631661647
0.525503754339018	0.24056602205199268
0.527255433520148	0.2520112461675048
0.5290129516318819	0.26331327231096247
0.5307763281373216	0.2758347755159145
0.532545582564446	0.29029672654871835
0.5343207345063276	0.30488869001178565
0.5361018036213486	0.31788748977168346
0.5378888096334199	0.33092382481665983
0.5396817723321979	0.3404412102559233
0.5414807115733054	0.3502008420129981
0.5432856472785497	0.3713968876802482
0.545096599436145	0.38564828099469556
0.5469135881009322	0.3938896242912011
0.5487366333946019	0.42375705719166823
0.5505657555059172	0.45269921716001227
0.5524009746909371	0.47873912028035676
0.5542423112732402	0.5025543465799364
0.556089785644151	0.5619297831921013
0.557943418262965	-0.8203941339694415
0.5598032296571749	0.5957111462071875
0.5616692404226988	0.5917749536717076
0.5635414712241079	0.611777779248225
0.5654199427948549	0.6250497549570467
0.5673046759375044	0.6016571204326899
0.569195691523963	0.5808354232296342
0.5710930104957095	0.6120164849212361
0.5729966538640286	0.633493248236569
0.5749066427102419	0.6280003439758879
0.576822998185943	0.6067519010762987
0.5787457415132294	0.5979481719350045
0.5806748939849402	0.5625785612422586
0.58261047696489	0.5010453421358054
0.5845525118881064	0.4174508403228494
0.5865010202610669	0.255311306710422
0.588456023661937	0.07701755195770926
0.5904175437408102	0.0649444962500249
0.5923856022199464	0.25752728665628966
0.5943602208940129	0.5373760649900374
0.5963414216303263	0.825987064038715
0.598329226369094	1.108122334352718
0.6003236571236578	1.4849634730039534
0.6023247359807368	1.9676320654256416
0.6043324851006725	2.566003262218807
0.6063469267176749	3.2735711136433485
0.6083680831400672	4.013697257522157
0.610395976750534	4.874851159894163
0.6124306300063692	5.833534969521132
0.6144720654397238	6.934065025444988
0.6165203056578563	8.117604619745174
0.6185753733433824	9.453368571831122
0.6206372912545272	10.914825331262342
0.6227060822253756	12.460830616058674
0.6247817691661269	13.918726046753221
0.6268643750633474	15.012300399720457
0.6289539229802253	17.06089024451173
0.6310504360568261	19.79201896286677
0.6331539375103489	21.999495399940397
0.6352644506353834	25.802625233061335
0.6373819988041681	28.49922006338059
0.6395066054668487	30.771528592570167
0.6416382941517382	34.543233932111725
0.6437770884655775	36.18354762461175
0.6459230120937961	31.52715341733992
0.6480760888007754	33.322737412135794
0.6502363424301114	44.23163083613638
0.6524037969048785	50.9989852026108
0.6545784762278948	57.85363434581437
0.6567604044819878	61.90322395763884
0.6589496058302612	72.42096665322067
0.6611461045163621	85.20627026759472
0.66334992486475	103.39595606372767
0.6655610912809659	120.39574767868258
0.6677796282519025	143.98316159211583
0.6700055603460756	161.78481283017854
0.6722389122138959	185.94535451260614
0.6744797085879423	218.96207472391248
0.6767279742832354	240.95721432851872
0.6789837341975129	256.15764460130987
0.6812470133115047	266.31070202992976
0.6835178366892097	271.86389967455955
0.6857962294781739	264.8142220180458
0.6880822169097679	243.24965172475453
0.6903758242994671	192.41284139737365
0.6926770770471321	114.54343279098674
0.6949860006372892	114.28050766140052
0.6973026206394136	155.2202275259772
0.6996269627082117	149.56892017938318
0.7019590525839058	117.9243436209196
0.7042989160925188	126.03965219140144
0.7066465791461606	143.0564311211855
0.7090020677433145	151.81013718988956
0.7113654079691256	154.98150625968438
0.7137366259956894	146.30905039789025
0.7161157480823418	81.37246899690805
0.7185028005759496	33.58323166707944
0.7208978099112028	46.55068633412991
0.7233008026109069	64.80628626683568
0.7257118052862767	62.117276784048265
0.728130844637231	71.22187611209849
0.7305579474526884	62.596715189387176
0.7329931406108642	72.68869185706326
0.7354364510795671	81.5473883250329
0.7378879059164991	115.04560901731988
0.7403475322695541	175.28935687253707
0.7428153573771193	237.4198305409554
0.7452914085683765	277.901837370137
0.7477757132636044	341.871231927031
0.7502682989744831	384.3699769240858
0.7527691933043982	418.98083069977184
0.7552784239487462	465.0779923605738
0.7577960186952422	500.2190283295535
0.7603220054242263	513.4250628731551
0.7628564121089738	468.17028748795326
0.7653992668160038	294.1454575927423
0.7679505977053904	209.8287247995753
0.7705104330310751	299.4007278273183
0.7730788011411788	492.20269349370864
0.7756557304783162	648.6241134305718
0.7782412495799106	715.3729485149263
0.7808353870785104	715.6776418273016
0.7834381717021055	752.9788029300485
0.7860496322744459	664.6874262454372
0.7886697977153608	689.2036657991324
0.7912986970410787	928.5458832185811
0.793936359364549	1004.125832842392
0.7965828138957642	947.5305828421315
0.7992380899420836	994.1298789637992
0.8019022169085571	1119.3968018085488
0.8045752242982523	1214.572230943344
0.80725714171258	1136.9920955948596
0.809947998851622	674.0662961848948
0.8126478255144608	282.399281245097
0.8153566515995091	201.10554278522716
0.8180745071048409	392.39228437461134
0.8208014221285237	649.6386116176595
0.8235374268689521	636.918980071564
0.8262825516251822	803.7752143090853
0.8290368267972661	743.2791895203272
0.8318002828865904	654.120912696756
0.8345729504962124	580.2928975549318
0.8373548603311998	656.7305731457315
0.8401460431989706	1074.5809047249213
0.8429465300096338	1229.2406303744146
0.8457563517763327	1530.4727230299159
0.8485755396155872	1841.8203910413363
0.8514041247476393	2105.7015394115065
0.8542421384967981	2430.136893038059
0.8570896122917875	2798.3071947047983
0.8599465776660935	3169.1040376236247
0.8628130662583139	3334.6804121162095
0.8656891098125085	3329.1154264166353
0.8685747401785502	3063.557352578773
0.8714699893124788	2773.7998726939545
0.8743748892768537	2618.769810815721
0.8772894722411099	2451.7622320619766
0.8802137704819137	2057.945409574104
0.8831478163835201	1594.1664078893054
0.8860916424381319	879.1873374858068
0.8890452812462591	185.61942967388066
0.89200876551708	15.73768345193238
0.8949821280688037	13.86102747128183
0.8979654018290332	13.502180053286802
0.90095861983513	26.393514578024792
0.9039618152345804	74.76491078226807
0.9069750212853626	61.02751888859738
0.9099982713563137	76.0307307043973
0.9130315989275016	175.07821760246026
0.9160750375905932	242.93792032750503
0.9191286210492287	619.2471381327372
0.9221923831193928	1157.4287361985655
0.9252663577297908	696.1197085691226
0.9283505789222235	134.65993238498052
0.9314450808519644	3.558922591231179
0.9345498977881376	0.771126861553091
0.9376650641140981	8.311373787563928
0.940790614327812	23.0400307993939
0.9439265830422381	19.95203988731881
0.9470730049857122	20.942764127802842
0.9502299150023314	17.294177099191298
0.9533973480523392	12.30334853000432
0.9565753392125138	17.117412870083488
0.9597639236765556	16.072657225804104
0.9629631367554774	23.961411769151262
0.9661730138779958	198.55505469915352
0.9693935905909224	409.5742708901401
0.972624902559559	398.14495720535325
0.9758669855680909	230.4490597854394
0.9791198755199847	219.81335449395712
0.9823836084383848	206.84319341371526
0.9856582204665127	270.2532319499375
0.9889437478680678	370.6491786388694
0.9922402270276282	391.27527839888853
0.9955476944510537	402.1807824268766
0.9988661867658906	403.11116469202256
1.002195740721777	339.97408204810574
1.0055363931908496	326.15904089161313
1.0088881811681525	314.1418242939136
1.0122511417720463	296.50731636091894
1.01562531224462	135.8310226423413
1.019010729952102	36.651694533959066
1.0224074323852759	29.766374031059648
1.0258154571598936	62.4079185079898
1.0292348420170931	90.9876787679543
1.0326656248238169	56.454487763601755
1.0361078435732296	36.715327397084216
1.0395615363851405	129.9683363111615
1.0430267415064245	333.8776887479168
1.0465034973114462	452.6119104881724
1.0499918423024843	486.86460589361366
1.0534918151101593	1026.0951596557738
1.05700345449386	1893.8873802038963
1.0605267993421728	2299.124703748129
1.0640618886733135	2436.3881158567965
1.067608761635558	2306.4231608394607
1.0711674575076766	2140.0410392319523
1.0747380156993689	1824.529515348415
1.0783204757517002	1477.5007717608842
1.0819148773375393	1211.5439178888817
1.085521260261998	987.9559030906545
1.0891396644628712	852.8471717852532
1.092770130011081	660.7098688991624
1.0964126971111179	342.3603071257195
1.1000674061014886	211.33328280667934
1.10373429745516	147.15604490117872
1.1074134117800107	41.00164421096745
1.1111047898192774	9.293025052839367
1.1148084724520084	4.293560108204981
1.1185245006935154	1.6829721552694419
1.1222529156958272	1.1999180833137972
1.1259937587481466	1.0147478040012705
1.1297470712773072	1.4151842345644703
1.1335128948482316	1.0283637805263468
1.1372912711643925	3.3970817281766226
1.1410822420682738	8.48520717768774
1.1448858495418348	5.334194312009701
1.1487021357069744	1.2371265048304867
1.1525311428259977	0.48930300736255156
1.1563729133020846	0.10330250411706832
1.1602274896797582	0.017553792726662715
1.1640949146453576	0.7402706601804057
1.1679752310275089	2.830118125743467
1.1718684817976006	1.2548997818023355
1.1757747100702594	0.4789597064587236
1.1796939591038271	2.198560484065661
1.1836262723008397	1.7804741511219546
1.1875716932085094	0.7349476511316383
1.1915302655192046	1.3192108440677646
1.1955020330709352	3.9521853180914226
1.1994870398478386	9.18715680234735
1.2034853299806647	9.680091022250053
1.207496947747267	7.230292785163368
1.2115219375730912	7.749052699009262
1.2155603440316685	9.375174195346569
1.2196122118451074	14.53855271478761
1.2236775858845912	22.32980467270737
1.2277565111708733	73.50254816282121
1.2318490328747762	121.44725375586005
1.2359551963176922	187.8487433513759
1.2400750469720847	459.7539206389863
1.2442086304619917	895.4451519107198
1.248355992563532	1210.5247175944917
1.2525171792054102	1154.5195566914479
1.2566922364694284	1339.9176132850855
1.2608812105909932	2314.853462098776
1.2650841479596302	3946.321005636302
1.2693010951194956	5597.734118954296
1.273532098769894	4022.4527588889373
1.2777772057657937	1867.3877843140585
1.2820364631183463	1080.0711180759765
1.2863099179954076	495.94859955077067
1.2905976177220593	261.41052877479456
1.2948996097811327	231.2944632701402
1.2992159418137368	170.69812420842982
1.3035466616197826	145.75673501117168
1.3078918171585154	122.7901652918828
1.3122514565490437	53.26864981790435
1.3166256280708741	45.147626454442474
1.3210143801644436	50.69714904740862
1.3254177614316587	45.17649347303682
1.329835820636431	23.482095771710757
1.3342686067052192	13.669352999706996
1.33871616872757	6.865620774686564
1.343178555956662	0.8941897336323731
1.347655817809851	0.09534685300428745
1.352148003869217	0.02210471639662261
1.3566551638821147	0.006783773385349849
1.3611773477617217	0.0005885891240698169
1.3657146055875944	0.0005565244006616647
1.3702669876062197	0.00046529361325893477
1.3748345442315741	0.004250559305732078
1.3794173260456792	0.006634318302074513
1.384015383799165	0.0013146273596097097
1.388628768411829	0.0029204836983025514
1.3932575309732018	0.005711936072404476
1.3979017227431125	0.013769667120300864
1.4025613951522564	0.031114449864769283
1.407236599802764	0.03560746858104902
1.4119273884687735	0.08418260006469935
1.4166338130970026	0.07704101822512972
1.4213559258073263	0.08347533723514691
1.4260937788933508	0.1743912467349306
1.4308474248229952	0.22505140670450066
1.4356169162390722	0.28803108508117997
1.4404023059598692	1.3111006661229625
1.4452036469797356	2.9974876500186847
1.450020992469668	5.60726231466097
1.4548543957779003	7.345570211681583
1.4597039104304934	7.07466206965563
1.4645695901319284	4.335138862556696
1.469451488765702	1.0877979849044133
1.4743496603949209	0.14118311174952375
1.479264159262904	0.13573210184090642
1.4841950397937806	0.09328843485853976
1.4891423565930935	0.14597046069533862
1.4941061644484037	0.2434335521125272
1.4990865183298985	0.23247950551872662
1.5040834733909982	0.22229909589315056
1.5090970849689684	0.38432815320119584
1.5141274085855316	0.09920962411561662
1.5191744999474837	0.1931108257883405
1.5242384149473087	0.9355945667026279
1.5293192096638	3.044259463371872
1.5344169403626793	2.547489251898415
1.5395316634972218	3.9501661267213843
1.544663435708879	6.077498137466046
1.5498123138279087	15.351555856413453
1.554978354874002	40.4288280480983
1.5601616160569156	79.57955621685537
1.5653621547771055	264.4060204700871
1.5705800286263625	742.1524112623225
1.5758152953884506	1173.9583373754208
1.5810680130397454	1550.3185128363061
1.5863382397498782	2013.6413295200082
1.5916260338823778	3271.822988548069
1.5969314539953192	3451.887853938166
1.6022545588419705	2671.9970997062433
1.6075954073714436	1497.5559253060646
1.6129540587293487	601.9819728434181
1.6183305722584467	179.9446628586177
1.6237250074993084	67.63151440447976
1.6291374241909726	25.027930218940647
1.6345678822716092	15.395862924172757
1.6400164418791816	5.04123090893885
1.6454831633521123	4.613945733610976
1.6509681072299527	1.9978863894096286
1.6564713342540527	23.542411087620607
1.6619929053682332	55.57216061956287
1.6675328817194608	19.24123474713534
1.6730913246585257	3.7332732021769783
1.6786682957407209	24.035724051569996
1.6842638567265233	28.222612646897215
1.6898780695822784	9.549305850334939
1.6955109964808863	0.9412251470870955
1.7011626998024894	0.783317402863017
1.7068332421351646	6.399397760983274
1.7125226862756153	11.301141229180297
1.7182310952298672	16.928774090600445
1.7239585322139668	12.614728461911797
1.7297050606546804	1.6230879875291537
1.7354707441901962	3.9699169871779074
1.7412556466708302	12.235137948422022
1.747059832159733	18.82118097972799
1.752883364933599	23.27878955566764
1.7587263094833776	14.028301941410461
1.7645887305149892	10.191909707540145
1.7704706929500391	8.523609641237915
1.7763722619265396	19.684011593152505
1.7822935027996283	22.65218641423533
1.7882344811422937	8.69564563351235
1.7941952627461015	3.290650090045773
1.8001759136219222	1.98887156678725
1.8061765000006618	1.8850351614955798
1.8121970883339975	1.9984117861274147
1.818237745295111	3.2251977799755083
1.8242985377794283	6.550905522208785
1.8303795329053596	2.36649562873997
1.8364807980150446	0.3665141463903283
1.8426024006750947	1.4886942131984282
1.8487444086773455	1.9094637302200306
1.8549068900396033	1.131048810905642
1.861089913006402	0.6070491932801044
1.8672935460497566	0.16283790321249747
1.873517857869923	0.1487438836254581
1.879762917396156	1.9984986150177206
1.8860287937874767	5.050432259756514
1.8923155564334353	5.098398672300488
1.8986232749548801	3.3127743081346885
1.9049520192047298	1.1859534929153515
1.9113018592687456	0.90163776072054
1.9176728654663082	0.8730476732525418
1.9240651083511964	1.3407542198867783
1.9304786587123668	0.3980526980395996
1.9369135875747419	0.022179402651908906
1.9433699661999908	0.019900966612107742
1.9498478660873244	0.02126617203984934
1.9563473589742824	0.2827407518033076
1.9628685168375302	1.3506379764162602
1.9694114118936552	2.1142832690886406
1.9759761165999676	2.956577440806072
1.9825627036553009	3.0519803573768276
1.9891712460008188	4.424574315751381
1.9958018168208218	7.706939107777372
2.002454489543558	7.92077753850831
2.0091293378420367	4.960301408368868
2.0158264356348434	4.020152002188083
2.02254585708696	5.5916299319010365
2.029287676610583	13.123357329634848
2.036051968865952	14.177153621846255
2.042838808762172	15.423573566725324
2.049648271458046	18.89924169902617
2.0564804323629065	23.98729600313267
2.0633353671374497	27.468730669398873
2.0702131516945745	30.665396218214003
2.0771138622002234	26.63169462975186
2.084037575074224	25.522372059803764
2.0909843669911385	24.15252042823417
2.097954314881109	21.5930821312172
2.1049474959307126	22.079117411478773
2.1119639875838154	24.11738033072893
2.1190038675424283	23.611416200945683
2.12606721376757	24.364190161210743
2.1331541044801288	24.088289512845634
2.140264618161729	22.145468275183447
2.147398833555602	22.208221504425822
2.154556829667454	20.172506681364457
2.1617386857663456	14.900763432577156
2.1689444813855667	14.03940928280013
2.176174296323519	14.312424994155288
2.1834282106445975	12.786564272286615
2.19070630468008	6.676005698116289
2.1980086590290138	1.284616449722196
2.2053353545591103	0.6022550812480454
2.2126864724076407	1.152983737825494
2.220062093982333	0.5351465766444451
2.2274623009622747	0.39069623261853553
2.2348871752988155	0.2470529802051641
2.2423367992164787	0.10086396164911585
2.2498112552138667	0.056872816492266255
2.25731062606458	0.053572180670898424
2.2648349948181288	0.012461551518377054
2.272384444800856	0.02256816802426765
2.2799590596168593	0.06568216807558139
2.2875589231489153	0.03304275872694902
2.295184119559412	0.021521377056496725
2.302834733291277	0.08618337137877648
2.3105108490689146	0.24980886834575555
2.3182125518991445	0.17759589595044334
