#wavelength (micron)	surface_flux (erg / (cm2 micron s))
0.40133895199999997	0.025442731072540876
0.40267674850666674	0.025033781975477825
0.40401900433502225	0.005491212891391548
0.4053657343494724	0.006038659188128713
0.4067169534639707	0.03872385981392472
0.40807267664218394	0.14673422240466527
0.4094329188976579	0.3873492538900729
0.41079769529398347	0.8198806094668251
0.41216702094496344	1.515010425440308
0.41354091101477997	2.5548279071042583
0.4149193807181627	4.000286872954692
0.41630244532055655	5.816649216149927
0.41769012013829176	7.430348863794175
0.41908242053875283	6.503978183830071
0.4204793619405487	4.128323575648581
0.42188095981368384	8.286772529358865
0.42328722967972954	19.846557184175484
0.4246981871119953	31.746742235452164
0.42611384773570193	42.55305394776721
0.4275342272281543	54.11103854773618
0.4289593413189149	67.04052352882165
0.43038920578997797	81.6761940841063
0.4318238364759446	98.28740688518627
0.43326324926419774	117.10210305410938
0.4347074600950785	138.35030784513003
0.4361564849620621	162.2708909708959
0.43761033991193565	189.09600556859624
0.4390690410449755	219.03296866443844
0.44053260451512544	252.50997763056145
0.4420010465301759	289.4929810389052
0.44347438335194317	330.9605054509008
0.4449526312964497	377.6352989784927
0.44643580673410455	428.98388936584024
0.44792392608988496	485.59878137649315
0.4494170058435179	548.0665452208431
0.450915062529663	616.0958784620047
0.4524181127380953	686.0228643267936
0.45392617311388894	733.0229475010312
0.45543926035760196	730.9811176275496
0.45695739122546064	651.5419832078526
0.4584805825295456	462.72097149736345
0.46000885113797746	402.53378568850843
0.46154221397510403	377.45345832948914
0.4630806880216877	342.26180059855994
0.4646242903150934	302.4793068874947
0.4661730379494771	265.0869885250249
0.4677269480759754	229.41315486290605
0.4692860379028953	191.466343796243
0.47085032469590504	153.8326019192709
0.4724198257782247	120.2897830247493
0.47399455853081884	93.26075342519499
0.4755745403925883	73.25267237526572
0.4771597888605636	59.28546102965001
0.47875032149009894	49.79647137046168
0.4803461558950659	42.126999942772734
0.48194730974804956	35.39833408932021
0.48355380078054305	29.730364219858302
0.4851656467831449	25.21888024828719
0.48678286560575545	21.89214275867192
0.4884054751577746	19.383788869298332
0.4900334934083006	17.409382988691362
0.4916669383863283	15.696218237871731
0.4933058281809494	14.080790320917394
0.4949501809415526	12.548718255126865
0.4966000148780246	11.040275456444823
0.4982553482609513	9.45591602056965
0.4999161994218212	7.924885463002616
0.5015825867532273	6.583788733438968
0.5032545287090715	5.570079325708708
0.5049320438047684	5.114464864073982
0.506615150617451	5.046468354166351
0.5083038677861758	5.026035808627502
0.5099982140121297	5.046199384030459
0.5116982080588369	5.064735175953062
0.5134038687523664	5.086847225399945
0.515115214981541	5.149171073797158
0.5168322656981462	5.233053287331443
0.5185550399171401	5.338581356765095
0.5202835567168639	5.4313227967982955
0.5220178352392535	5.508347075946132
0.5237578946900511	5.567875651859151
0.525503754339018	5.63715952098474
0.527255433520148	5.706853942571464
0.5290129516318819	5.775919591738702
0.5307763281373216	5.852224534745763
0.532545582564446	5.943913473502827
0.5343207345063276	6.041956780027717
0.5361018036213486	6.133869966623308
0.5378888096334199	6.221446817316776
0.5396817723321979	6.281285285823905
0.5414807115733054	6.351690544506
0.5432856472785497	6.501928284024023
0.545096599436145	6.622765191772614
0.5469135881009322	6.719534299855528
0.5487366333946019	6.884696845360523
0.5505657555059172	7.039318233544165
0.5524009746909371	7.194291141048341
0.5542423112732402	7.3438632441406115
0.556089785644151	7.482155506455831
0.557943418262965	7.614450826549743
0.5598032296571749	7.7331959809993975
0.5616692404226988	7.834824010052983
0.5635414712241079	7.926785963310449
0.5654199427948549	7.98488586520456
0.5673046759375044	7.904112686141476
0.569195691523963	7.8212670522010095
0.5710930104957095	7.88711080271652
0.5729966538640286	7.823410482771524
0.5749066427102419	7.649083560014591
0.576822998185943	7.388512787137578
0.5787457415132294	7.065706634538311
0.5806748939849402	6.598172536325817
0.58261047696489	6.000145274251784
0.5845525118881064	5.181120881054389
0.5865010202610669	3.5774799166789446
0.588456023661937	1.3802923136234049
0.5904175437408102	1.3172144173856037
0.5923856022199464	4.187972819929698
0.5943602208940129	7.451445820627664
0.5963414216303263	10.514079357438975
0.598329226369094	13.854596338989047
0.6003236571236578	17.801560001101524
0.6023247359807368	22.49143657195589
0.6043324851006725	28.095767550014248
0.6063469267176749	34.63695152252814
0.6083680831400672	41.83375065079107
0.610395976750534	50.10682025309896
0.6124306300063692	59.62694354066689
0.6144720654397238	70.64769433981795
0.6165203056578563	83.17697524113375
0.6185753733433824	97.58962314149348
0.6206372912545272	113.95065810439024
0.6227060822253756	132.20796149114256
0.6247817691661269	151.5274484231482
0.6268643750633474	171.83678815914578
0.6289539229802253	199.24034486258859
0.6310504360568261	231.37008064440397
0.6331539375103489	264.1997830009057
0.6352644506353834	306.46453998673996
0.6373819988041681	349.64702998890175
0.6395066054668487	397.04754575667795
0.6416382941517382	453.75410283667236
0.6437770884655775	507.0609673287533
0.6459230120937961	543.6807209701741
0.6480760888007754	612.473725698344
0.6502363424301114	723.2584632639563
0.6524037969048785	825.8972947919417
0.6545784762278948	944.9339464844418
0.6567604044819878	1060.2535170590177
0.6589496058302612	1212.4884331815529
0.6611461045163621	1393.8391496213842
0.66334992486475	1605.172208317801
0.6655610912809659	1829.246191270641
0.6677796282519025	2064.387227643782
0.6700055603460756	2209.883083364892
0.6722389122138959	2472.855638734199
0.6744797085879423	2888.956583719313
0.6767279742832354	3176.1191248388145
0.6789837341975129	3379.830978782373
0.6812470133115047	3484.942028460676
0.6835178366892097	3464.6485283321213
0.6857962294781739	3300.935380965713
0.6880822169097679	3006.1902429259853
0.6903758242994671	2554.5827702110673
0.6926770770471321	2019.3381800936302
0.6949860006372892	1861.499759743488
0.6973026206394136	1917.9829835143178
0.6996269627082117	1838.171580226331
0.7019590525839058	1726.3668812348428
0.7042989160925188	1752.2637801204094
0.7066465791461606	1832.7891633630159
0.7090020677433145	1900.283526161528
0.7113654079691256	1922.7147944482986
0.7137366259956894	1882.339832316059
0.7161157480823418	1484.8700233624154
0.7185028005759496	1190.7546319717721
0.7208978099112028	1370.7727259589105
0.7233008026109069	1450.2157687800873
0.7257118052862767	1319.056094199225
0.728130844637231	1373.1057471604508
0.7305579474526884	1359.2422259581685
0.7329931406108642	1404.5890574765483
0.7354364510795671	1447.1407603680266
0.7378879059164991	1583.0335264890177
0.7403475322695541	1741.9122521874895
0.7428153573771193	1892.3456669138668
0.7452914085683765	1979.4296769624884
0.7477757132636044	2104.5945131698036
0.7502682989744831	2181.078190431096
0.7527691933043982	2220.4827509930806
0.7552784239487462	2264.451856985924
0.7577960186952422	2279.3063384613624
0.7603220054242263	2256.9771652749173
0.7628564121089738	1976.1048415218354
0.7653992668160038	1211.545059140519
0.7679505977053904	866.6828017732297
0.7705104330310751	1178.9218388214952
0.7730788011411788	1933.1307408437683
0.7756557304783162	2628.118250293976
0.7782412495799106	3037.2560703947647
0.7808353870785104	3311.50990002847
0.7834381717021055	3856.340525728783
0.7860496322744459	4148.917534603804
0.7886697977153608	4606.639339816429
0.7912986970410787	5431.926877550655
0.793936359364549	5713.789796112293
0.7965828138957642	6184.172327125361
0.7992380899420836	7373.611204523654
0.8019022169085571	8390.632638867497
0.8045752242982523	9345.213982158639
0.80725714171258	9773.746752610263
0.809947998851622	8795.747809912073
0.8126478255144608	7488.930113349682
0.8153566515995091	6845.905373680399
0.8180745071048409	9167.016187316178
0.8208014221285237	12537.88829595679
0.8235374268689521	13049.33861484643
0.8262825516251822	16103.496727658523
0.8290368267972661	17291.32592020996
0.8318002828865904	17904.094146933923
0.8345729504962124	18915.500365004744
0.8373548603311998	21109.804381750237
0.8401460431989706	26777.52537294343
0.8429465300096338	30594.256301160378
0.8457563517763327	35490.93066223596
0.8485755396155872	40714.99271365367
0.8514041247476393	44345.91218597775
0.8542421384967981	50191.85955434698
0.8570896122917875	57982.40475029438
0.8599465776660935	64769.57694691179
0.8628130662583139	70982.62011263169
0.8656891098125085	76854.9225580012
0.8685747401785502	81792.20681268087
0.8714699893124788	86774.77560142732
0.8743748892768537	92804.28196173714
0.8772894722411099	98640.00428094818
0.8802137704819137	102196.0304102795
0.8831478163835201	102582.95599625219
0.8860916424381319	89296.7230231623
0.8890452812462591	58014.29350268358
0.89200876551708	34164.82306965925
0.8949821280688037	34773.0059636586
0.8979654018290332	33248.92807542476
0.90095861983513	40275.887355092134
0.9039618152345804	75164.15337265664
0.9069750212853626	78737.54264801402
0.9099982713563137	76216.99254648342
0.9130315989275016	94500.66456480398
0.9160750375905932	108476.94418369887
0.9191286210492287	131066.65429232187
0.9221923831193928	161496.80474629666
0.9252663577297908	122090.8748698713
0.9283505789222235	38790.20308342271
0.9314450808519644	3419.4786206595372
0.9345498977881376	4623.034944160025
0.9376650641140981	20622.518643929765
0.940790614327812	44815.516764851156
0.9439265830422381	33478.321630026985
0.9470730049857122	21464.935555333916
0.9502299150023314	18093.224152172657
0.9533973480523392	22629.354192441686
0.9565753392125138	21411.67337182542
0.9597639236765556	22841.279268486567
0.9629631367554774	24247.96878450376
0.9661730138779958	58091.22682385455
0.9693935905909224	106655.89217052002
0.972624902559559	134757.72382856
0.9758669855680909	129108.47108657319
0.9791198755199847	156553.70236913775
0.9823836084383848	182690.6129434415
0.9856582204665127	219019.25458199836
0.9889437478680678	282676.35258349444
0.9922402270276282	320124.64415189024
0.9955476944510537	349792.39327433414
0.9988661867658906	321545.93194720335
1.002195740721777	263265.65326050343
1.0055363931908496	301654.2770003868
1.0088881811681525	304390.0805078806
1.0122511417720463	291195.97114885796
1.01562531224462	228948.66132482068
1.019010729952102	175591.45222600029
1.0224074323852759	173902.18167339024
1.0258154571598936	216905.86045056043
1.0292348420170931	246350.61996140846
1.0326656248238169	208749.28934398587
1.0361078435732296	180805.85860537196
1.0395615363851405	221815.65637457016
1.0430267415064245	277082.27894643205
1.0465034973114462	308052.55926266866
1.0499918423024843	316260.60846776504
1.0534918151101593	346647.6119146285
1.05700345449386	376495.93282161816
1.0605267993421728	380338.60577633115
1.0640618886733135	370996.0032540413
1.067608761635558	351037.4990398959
1.0711674575076766	331415.2577488751
1.0747380156993689	310266.6620317467
1.0783204757517002	286653.9974139596
1.0819148773375393	265381.4622225847
1.085521260261998	241801.0411089595
1.0891396644628712	214541.76200763855
1.092770130011081	172582.09623630287
1.0964126971111179	121722.00808191462
1.1000674061014886	84917.69110431106
1.10373429745516	50370.108638506834
1.1074134117800107	21393.8696121671
1.1111047898192774	7546.682109812248
1.1148084724520084	4117.530498362106
1.1185245006935154	3348.1640090477176
1.1222529156958272	3714.965718703016
1.1259937587481466	4282.243364124924
1.1297470712773072	5746.637666922202
1.1335128948482316	3896.570348955271
1.1372912711643925	7847.795551223661
1.1410822420682738	14479.715646031755
1.1448858495418348	8194.612627524033
1.1487021357069744	3372.308147124256
1.1525311428259977	2531.444350105065
1.1563729133020846	932.9862893641648
1.1602274896797582	940.4932131426885
1.1640949146453576	2925.9225053673576
1.1679752310275089	6429.014774646098
1.1718684817976006	4206.835050934345
1.1757747100702594	4231.985486058566
1.1796939591038271	10819.353359528706
1.1836262723008397	13464.506059071551
1.1875716932085094	16321.286919313057
1.1915302655192046	20171.951551205166
1.1955020330709352	25736.425567942646
1.1994870398478386	35953.116711629664
1.2034853299806647	44936.33247533095
1.207496947747267	46730.53592636289
1.2115219375730912	50129.87912836918
1.2155603440316685	61816.113220633866
1.2196122118451074	73776.23307834617
1.2236775858845912	89167.08837895312
1.2277565111708733	123200.31709445207
1.2318490328747762	149409.15115189267
1.2359551963176922	183320.3693107683
1.2400750469720847	236072.79014509122
1.2442086304619917	294997.96605873853
1.248355992563532	344610.8013570827
1.2525171792054102	368411.41559677676
1.2566922364694284	418665.4731569958
1.2608812105909932	515601.8450295953
1.2650841479596302	608679.9170476611
1.2693010951194956	661849.8373125945
1.273532098769894	602045.5509019911
1.2777772057657937	490450.1069646725
1.2820364631183463	391184.76540243544
1.2863099179954076	291085.126481853
1.2905976177220593	229106.24342751727
1.2948996097811327	210516.0629950965
1.2992159418137368	193399.37495259574
1.3035466616197826	162148.48418670762
1.3078918171585154	137421.12023704345
1.3122514565490437	98269.61688440923
1.3166256280708741	84239.7381029455
1.3210143801644436	88598.21006546152
1.3254177614316587	79565.52796764494
1.329835820636431	42247.784737603026
1.3342686067052192	13967.088347107994
1.33871616872757	4681.729358907728
1.343178555956662	604.1124229568319
1.347655817809851	114.55701373474439
1.352148003869217	72.32427311698751
1.3566551638821147	14.477521459079574
1.3611773477617217	3.5175988537214917
1.3657146055875944	4.72042327748636
1.3702669876062197	6.754525246216068
1.3748345442315741	38.508474433451354
1.3794173260456792	54.604299834844
1.384015383799165	12.884383508292046
1.388628768411829	35.67160583640396
1.3932575309732018	63.553516900848685
1.3979017227431125	76.54903066726474
1.4025613951522564	122.4209761405825
1.407236599802764	114.07411865071805
1.4119273884687735	166.43447921032129
1.4166338130970026	133.3840547962302
1.4213559258073263	148.15001158183267
1.4260937788933508	243.6829751018664
1.4308474248229952	446.2811720510866
1.4356169162390722	597.1749949514094
1.4404023059598692	1233.2599959607426
1.4452036469797356	2033.4659172588533
1.450020992469668	3646.3927987708425
1.4548543957779003	6053.067121191775
1.4597039104304934	8360.62255280709
1.4645695901319284	5561.937106907443
1.469451488765702	2305.95968161927
1.4743496603949209	929.1445149727678
1.479264159262904	971.9315879539174
1.4841950397937806	831.4003134632284
1.4891423565930935	760.8675316137223
1.4941061644484037	1069.7093521612335
1.4990865183298985	1655.0766231623238
1.5040834733909982	2179.244535717661
1.5090970849689684	2115.3955039265247
1.5141274085855316	725.3623329563617
1.5191744999474837	1690.8543115624161
1.5242384149473087	3946.6511126241558
1.5293192096638	7334.017857336439
1.5344169403626793	8988.972773886084
1.5395316634972218	10449.507326821804
1.544663435708879	15838.520437263132
1.5498123138279087	25805.691780093093
1.554978354874002	42278.246407656334
1.5601616160569156	64209.201998383876
1.5653621547771055	112041.03754050424
1.5705800286263625	180391.6464269644
1.5758152953884506	230011.24865012558
1.5810680130397454	283149.2779066168
1.5863382397498782	322690.50336354703
1.5916260338823778	357572.0807667555
1.5969314539953192	348181.2577030875
1.6022545588419705	287738.203313665
1.6075954073714436	204358.08115150203
1.6129540587293487	123708.59036344364
1.6183305722584467	61409.44357099088
1.6237250074993084	27628.173170743572
1.6291374241909726	15278.580545440993
1.6345678822716092	10780.142614494227
1.6400164418791816	8831.326944213408
1.6454831633521123	10202.18027320508
1.6509681072299527	11041.286116034718
1.6564713342540527	17345.12451347558
1.6619929053682332	25400.09495267614
1.6675328817194608	11257.724511816494
1.6730913246585257	6365.176847229973
1.6786682957407209	13666.738248237454
1.6842638567265233	15548.207783119808
1.6898780695822784	9057.841751809412
1.6955109964808863	4460.199758707804
1.7011626998024894	3373.5747516704996
1.7068332421351646	6856.005113935963
1.7125226862756153	9998.357164360968
1.7182310952298672	13842.745168965123
1.7239585322139668	12493.2496055872
1.7297050606546804	7072.149412933262
1.7354707441901962	6634.465774255076
1.7412556466708302	8917.960950997041
1.747059832159733	13668.831951150732
1.752883364933599	16726.70393617827
1.7587263094833776	13114.736671076518
1.7645887305149892	9957.02631252007
1.7704706929500391	7133.793718647287
1.7763722619265396	6046.014964709254
1.7822935027996283	5319.711186427583
1.7882344811422937	3220.911905004689
1.7941952627461015	1683.1051011788113
1.8001759136219222	1556.3212007755842
1.8061765000006618	778.3080073793095
1.8121970883339975	695.6555516087253
1.818237745295111	850.829523872414
1.8242985377794283	1254.0855817934298
1.8303795329053596	541.0365750063061
1.8364807980150446	200.68113787228316
1.8426024006750947	474.7751413196323
1.8487444086773455	748.0507721815396
1.8549068900396033	588.1177533871249
1.861089913006402	246.56583196481077
1.8672935460497566	80.14185170319197
1.873517857869923	77.42460652791209
1.879762917396156	651.0975737933261
1.8860287937874767	1369.7751501058463
1.8923155564334353	1689.89940149336
1.8986232749548801	1435.1129563509053
1.9049520192047298	518.3114532703752
1.9113018592687456	400.2816778379966
1.9176728654663082	373.7644635092685
1.9240651083511964	430.26353167330666
1.9304786587123668	172.75946247497396
1.9369135875747419	45.019803824294165
1.9433699661999908	47.835977643293255
1.9498478660873244	115.40895521883951
1.9563473589742824	274.99186120743866
1.9628685168375302	663.7331433330801
1.9694114118936552	1066.7405792154764
1.9759761165999676	1227.6039966733956
1.9825627036553009	1449.94589464696
1.9891712460008188	1922.536204749404
1.9958018168208218	2420.387721954876
2.002454489543558	2458.724943552964
2.0091293378420367	2160.5793553990184
2.0158264356348434	2023.0256772006155
2.02254585708696	1946.0823363699205
2.029287676610583	3242.6239114667374
2.036051968865952	3729.864484736892
2.042838808762172	4319.428396906166
2.049648271458046	5263.882405151229
2.0564804323629065	5916.078361423053
2.0633353671374497	6329.779965743802
2.0702131516945745	6697.354639175777
2.0771138622002234	6458.7423387404615
2.084037575074224	6316.168530167667
2.0909843669911385	6165.20908954614
2.097954314881109	5878.091151192073
2.1049474959307126	5803.268022635046
2.1119639875838154	5857.010623862557
2.1190038675424283	5747.84901632588
2.12606721376757	5651.235435139239
2.1331541044801288	5372.047532468159
2.140264618161729	5221.072595362144
2.147398833555602	5153.964695471971
2.154556829667454	4504.842511569046
2.1617386857663456	3839.043005163956
2.1689444813855667	3328.1030395634807
2.176174296323519	2917.4065441934285
2.1834282106445975	2563.9729437274036
2.19070630468008	1541.5920215790343
2.1980086590290138	463.48042826431094
2.2053353545591103	284.14243163623945
2.2126864724076407	571.9201675391922
2.220062093982333	358.51782993397734
2.2274623009622747	292.48598029772955
2.2348871752988155	251.94350435525334
2.2423367992164787	154.14960055394036
2.2498112552138667	93.03199012131113
2.25731062606458	90.40305561494425
2.2648349948181288	31.84692371452524
2.272384444800856	38.46901849603768
2.2799590596168593	79.53052345529105
2.2875589231489153	66.28897830981393
2.295184119559412	52.59652459337472
2.302834733291277	129.40394698297283
2.3105108490689146	298.8109079009415
2.3182125518991445	166.75163375130836
2.325939927072142	69.14716449666977
2.3336930601623824	58.99328884931891
2.341472037029591	58.87864966612184
2.3492769438196897	49.55758770060022
2.3571078669657557	160.03672835789598
2.364964893188975	275.8225860993998
2.372848109499605	129.78786089358252
