#wavelength (micron)	surface_flux (erg / (cm2 micron s))
0.40133895199999997	0.008634836210653493
0.40267674850666674	0.009025732606040516
0.40401900433502225	0.002446231081255091
0.4053657343494724	0.0027293605899593497
0.4067169534639707	0.014133651104762345
0.40807267664218394	0.04839771756740784
0.4094329188976579	0.12045465999899381
0.41079769529398347	0.24222647368400485
0.41216702094496344	0.4226021011968925
0.41354091101477997	0.6694695818445254
0.4149193807181627	0.9849292676827028
0.41630244532055655	1.358645479089838
0.41769012013829176	1.7049559841240172
0.41908242053875283	1.649338915059092
0.4204793619405487	1.3684338574539496
0.42188095981368384	2.2171526894909928
0.42328722967972954	4.088634578531509
0.4246981871119953	5.924633071035218
0.42611384773570193	7.620248127755737
0.4275342272281543	9.439039220119327
0.4289593413189149	11.464492103272656
0.43038920578997797	13.747351202818043
0.4318238364759446	16.332167396061664
0.43326324926419774	19.254210202417877
0.4347074600950785	22.549214936175645
0.4361564849620621	26.254862030835632
0.43761033991193565	30.407870980817865
0.4390690410449755	35.03642165527206
0.44053260451512544	40.21111597635723
0.4420010465301759	45.89067806172507
0.44347438335194317	52.321321710255994
0.4449526312964497	59.655485739979596
0.44643580673410455	67.71434838560549
0.44792392608988496	76.67141400626183
0.4494170058435179	86.6494855757495
0.450915062529663	97.6203880376403
0.4524181127380953	109.21329356893543
0.45392617311388894	119.54091869532095
0.45543926035760196	126.60046152267826
0.45695739122546064	121.56573633059051
0.4584805825295456	102.84654329103004
0.46000885113797746	99.0132580710728
0.46154221397510403	98.1753468258022
0.4630806880216877	95.11840009702615
0.4646242903150934	90.43737849757956
0.4661730379494771	85.18974351122235
0.4677269480759754	79.35751669041187
0.4692860379028953	72.13398043844168
0.47085032469590504	63.958395968735275
0.4724198257782247	55.58483477771248
0.47399455853081884	47.73910768496695
0.4755745403925883	41.020432117781304
0.4771597888605636	35.66979475785851
0.47875032149009894	31.596036386607494
0.4803461558950659	27.83643241644131
0.48194730974804956	24.152815505697475
0.48355380078054305	20.81776498102831
0.4851656467831449	18.076694183749222
0.48678286560575545	16.06452776793766
0.4884054751577746	14.543224449752193
0.4900334934083006	13.325657576263003
0.4916669383863283	12.233304534342231
0.4933058281809494	11.16344735173067
0.4949501809415526	10.113641667274955
0.4966000148780246	9.04261799403074
0.4982553482609513	7.8679847113344055
0.4999161994218212	6.7008002509511915
0.5015825867532273	5.631392941532009
0.5032545287090715	4.775422679834588
0.5049320438047684	4.409252758914143
0.506615150617451	4.371149359071712
0.5083038677861758	4.348451091269596
0.5099982140121297	4.36378766617693
0.5116982080588369	4.378500929550858
0.5134038687523664	4.405738273133427
0.515115214981541	4.4721492083737315
0.5168322656981462	4.564354359815672
0.5185550399171401	4.675865367146372
0.5202835567168639	4.773918438050822
0.5220178352392535	4.852593859713438
0.5237578946900511	4.9086000093805
0.525503754339018	4.976254480221903
0.527255433520148	5.041907008155662
0.5290129516318819	5.102125641407907
0.5307763281373216	5.165481618398845
0.532545582564446	5.243256664443772
0.5343207345063276	5.326076210481639
0.5361018036213486	5.397240923201661
0.5378888096334199	5.4578040117189826
0.5396817723321979	5.48369088641397
0.5414807115733054	5.522843275778906
0.5432856472785497	5.657966966997896
0.545096599436145	5.763887091890955
0.5469135881009322	5.845264531591402
0.5487366333946019	5.995914234260458
0.5505657555059172	6.1390727348803145
0.5524009746909371	6.286801118798484
0.5542423112732402	6.4302200989146385
0.556089785644151	6.56148243437649
0.557943418262965	6.685960757238762
0.5598032296571749	6.795799513624141
0.5616692404226988	6.889180160881865
0.5635414712241079	6.973336134637218
0.5654199427948549	7.019633093820242
0.5673046759375044	6.910368562579864
0.569195691523963	6.8001639718957785
0.5710930104957095	6.881044330749201
0.5729966538640286	6.823125369592069
0.5749066427102419	6.669720415006923
0.576822998185943	6.457926395486053
0.5787457415132294	6.203080052777782
0.5806748939849402	5.8354831416827535
0.58261047696489	5.359330790027608
0.5845525118881064	4.672929936104369
0.5865010202610669	3.238906365083039
0.588456023661937	1.2478707581448814
0.5904175437408102	1.1887029582632092
0.5923856022199464	3.761080948983505
0.5943602208940129	6.588957109917953
0.5963414216303263	9.160886336986332
0.598329226369094	11.966585902418105
0.6003236571236578	15.353167998044354
0.6023247359807368	19.5002454392252
0.6043324851006725	24.56677961805876
0.6063469267176749	30.562565873391318
0.6083680831400672	37.160549284918154
0.610395976750534	44.67356690415705
0.6124306300063692	53.295285668257954
0.6144720654397238	63.23052192617934
0.6165203056578563	74.51696642111298
0.6185753733433824	87.53890616178752
0.6206372912545272	102.35030705939046
0.6227060822253756	118.80419638797296
0.6247817691661269	135.6696719172081
0.6268643750633474	153.11141943861773
0.6289539229802253	178.4077483436098
0.6310504360568261	207.99863587862046
0.6331539375103489	237.18218372285838
0.6352644506353834	275.2690838104606
0.6373819988041681	313.68446580278055
0.6395066054668487	355.9281616440846
0.6416382941517382	406.2099249933583
0.6437770884655775	450.369364655596
0.6459230120937961	475.1344122264393
0.6480760888007754	532.8648578421785
0.6502363424301114	634.3817166361204
0.6524037969048785	724.1099347551332
0.6545784762278948	829.7752056208691
0.6567604044819878	928.4160726181851
0.6589496058302612	1064.5632368060383
0.6611461045163621	1230.9229680507947
0.66334992486475	1420.674449183892
0.6655610912809659	1622.2324401523385
0.6677796282519025	1827.9526944227453
0.6700055603460756	1962.0284080804943
0.6722389122138959	2194.100539552693
0.6744797085879423	2552.23059489254
0.6767279742832354	2806.3930150373453
0.6789837341975129	2977.7082850719626
0.6812470133115047	3053.851519962105
0.6835178366892097	3015.678792243666
0.6857962294781739	2855.333407007044
0.6880822169097679	2578.6030364986
0.6903758242994671	2138.708124284101
0.6926770770471321	1611.030955762909
0.6949860006372892	1474.2759920659944
0.6973026206394136	1550.8098353753421
0.6996269627082117	1470.6398017884082
0.7019590525839058	1358.6617824120342
0.7042989160925188	1373.4803013184683
0.7066465791461606	1438.0044247617584
0.7090020677433145	1492.8121709730954
0.7113654079691256	1505.3987080992135
0.7137366259956894	1445.6148516164506
0.7161157480823418	1044.7254261553069
0.7185028005759496	749.1036006349922
0.7208978099112028	933.1800958796177
0.7233008026109069	1012.570156583867
0.7257118052862767	889.8908709036849
0.728130844637231	935.3806715294091
0.7305579474526884	926.2615739381968
0.7329931406108642	991.7492361899748
0.7354364510795671	1058.3764433354552
0.7378879059164991	1184.4079935959726
0.7403475322695541	1334.119409264798
0.7428153573771193	1483.6672101606869
0.7452914085683765	1590.9449966538982
0.7477757132636044	1721.593163150373
0.7502682989744831	1817.1568173151297
0.7527691933043982	1877.2377507584088
0.7552784239487462	1930.0975900556202
0.7577960186952422	1951.1204512658398
0.7603220054242263	1933.6779751995002
0.7628564121089738	1695.873265077471
0.7653992668160038	1084.2008727535504
0.7679505977053904	827.7812607368089
0.7705104330310751	1086.8474242461157
0.7730788011411788	1675.0947868278165
0.7756557304783162	2252.8743700303366
0.7782412495799106	2629.5899474804496
0.7808353870785104	2872.186117278417
0.7834381717021055	3288.117636452047
0.7860496322744459	3482.9166805149694
0.7886697977153608	3814.168434350562
0.7912986970410787	4494.260452355299
0.793936359364549	4779.15806286604
0.7965828138957642	5080.784790793937
0.7992380899420836	5960.697436715804
0.8019022169085571	6765.5099784629565
0.8045752242982523	7489.732647711182
0.80725714171258	7642.497105346089
0.809947998851622	6482.739391667896
0.8126478255144608	5014.462676863407
0.8153566515995091	4311.891534561076
0.8180745071048409	6210.616321568921
0.8208014221285237	8790.847415828353
0.8235374268689521	8917.038320368023
0.8262825516251822	11332.052320420915
0.8290368267972661	12016.819278273546
0.8318002828865904	12183.64707997149
0.8345729504962124	12814.303862300974
0.8373548603311998	14552.935093507205
0.8401460431989706	18907.505213477627
0.8429465300096338	22205.870638397173
0.8457563517763327	26286.38498810295
0.8485755396155872	30473.914259719597
0.8514041247476393	33679.27795733933
0.8542421384967981	38255.90153820141
0.8570896122917875	44116.464009687195
0.8599465776660935	49334.82845107989
0.8628130662583139	53934.90241913172
0.8656891098125085	57951.2115410275
0.8685747401785502	60739.1003172955
0.8714699893124788	63394.33012456966
0.8743748892768537	66878.28228002427
0.8772894722411099	69871.76604386745
0.8802137704819137	70489.13405651588
0.8831478163835201	68269.3363183556
0.8860916424381319	54613.34802224037
0.8890452812462591	29411.243782343667
0.89200876551708	13023.500703564552
0.8949821280688037	12205.55123510002
0.8979654018290332	11198.77957313986
0.90095861983513	14874.536985795936
0.9039618152345804	32950.62490746187
0.9069750212853626	35067.54685307373
0.9099982713563137	32825.89518033217
0.9130315989275016	41634.33481008246
0.9160750375905932	48015.434621659115
0.9191286210492287	60777.001148834
0.9221923831193928	76956.19246716984
0.9252663577297908	52722.24033064524
0.9283505789222235	13665.34803259074
0.9314450808519644	558.7791845055677
0.9345498977881376	605.8725775557585
0.9376650641140981	4538.0189586630895
0.940790614327812	10958.79615491288
0.9439265830422381	6799.145488953017
0.9470730049857122	3256.026851194662
0.9502299150023314	3052.534350740886
0.9533973480523392	4007.1302557878435
0.9565753392125138	3856.7142300633404
0.9597639236765556	4392.300920119325
0.9629631367554774	5500.630255501109
0.9661730138779958	16084.430710784238
0.9693935905909224	33622.13884444552
0.972624902559559	44074.696634885855
0.9758669855680909	42243.34684832455
0.9791198755199847	53204.862619338375
0.9823836084383848	64021.72492626127
0.9856582204665127	79934.7293476756
0.9889437478680678	107462.4811430892
0.9922402270276282	125201.14968970808
0.9955476944510537	137089.1266463139
0.9988661867658906	125472.96739974584
1.002195740721777	91369.67983633553
1.0055363931908496	93330.92162456436
1.0088881811681525	88011.20511507668
1.0122511417720463	79508.44835382576
1.01562531224462	56131.35527522483
1.019010729952102	37007.75714009872
1.0224074323852759	33645.79409253056
1.0258154571598936	42521.53878674986
1.0292348420170931	49606.251822113074
1.0326656248238169	38862.13842917074
1.0361078435732296	31558.873353530114
1.0395615363851405	41318.43327707334
1.0430267415064245	53694.44544024699
1.0465034973114462	60592.88663511909
1.0499918423024843	62764.29942874229
1.0534918151101593	69609.82085939938
1.05700345449386	75573.53047815556
1.0605267993421728	75078.75185110231
1.0640618886733135	71237.60734518338
1.067608761635558	65021.35755683878
1.0711674575076766	58890.18271457443
1.0747380156993689	53326.28726570174
1.0783204757517002	47885.56814119517
1.0819148773375393	42901.49602365769
1.085521260261998	38151.81294557711
1.0891396644628712	33560.67869657594
1.092770130011081	27207.41213977715
1.0964126971111179	19420.982787970468
1.1000674061014886	13335.354642553906
1.10373429745516	7695.527916615844
1.1074134117800107	3205.198585299459
1.1111047898192774	1057.2441203677183
1.1148084724520084	463.35049373467626
1.1185245006935154	299.64325020810594
1.1222529156958272	298.7482273266062
1.1259937587481466	338.827561735335
1.1297470712773072	533.0776807509689
1.1335128948482316	418.9342471274345
1.1372912711643925	899.8447695358082
1.1410822420682738	1749.6915506401288
1.1448858495418348	974.8006278347464
1.1487021357069744	358.12875628710265
1.1525311428259977	271.73923002833845
1.1563729133020846	95.6775893830905
1.1602274896797582	86.09164479650902
1.1640949146453576	318.267372304586
1.1679752310275089	791.3752594856849
1.1718684817976006	502.06162327994116
1.1757747100702594	556.6790419696255
1.1796939591038271	1476.735468219649
1.1836262723008397	1765.8815714348125
1.1875716932085094	2032.050018804959
1.1915302655192046	2587.81306568863
1.1955020330709352	3344.886010090849
1.1994870398478386	4549.708242281737
1.2034853299806647	5613.254626902211
1.207496947747267	5795.363049823948
1.2115219375730912	6201.56220731208
1.2155603440316685	7720.780908937487
1.2196122118451074	9372.893095656002
1.2236775858845912	11772.316363089418
1.2277565111708733	17254.58844086119
1.2318490328747762	21672.565802579822
1.2359551963176922	27710.798795019058
1.2400750469720847	37566.48006791957
1.2442086304619917	49656.966943701154
1.248355992563532	60034.69397873528
1.2525171792054102	63991.53699757408
1.2566922364694284	73814.5427867503
1.2608812105909932	96092.28792936697
1.2650841479596302	120845.92117754093
1.2693010951194956	137252.79443904685
1.273532098769894	125915.9523907224
1.2777772057657937	102567.75537153207
1.2820364631183463	80625.07477667819
1.2863099179954076	58107.84271541845
1.2905976177220593	44154.109019268115
1.2948996097811327	40028.381277523564
1.2992159418137368	36578.567598349706
1.3035466616197826	30416.118160362308
1.3078918171585154	26043.26872520261
1.3122514565490437	18592.58685136622
1.3166256280708741	15198.377672747925
1.3210143801644436	15948.376683031414
1.3254177614316587	15296.622472863648
1.329835820636431	8203.107275408265
1.3342686067052192	2715.1747838690376
1.33871616872757	976.7017259058757
1.343178555956662	105.82916783413613
1.347655817809851	13.449949710001794
1.352148003869217	6.678337584593323
1.3566551638821147	0.9387512779986601
1.3611773477617217	0.18323483791828424
1.3657146055875944	0.23402099813514027
1.3702669876062197	0.34097482058777256
1.3748345442315741	2.528050454329557
1.3794173260456792	3.607755232725374
1.384015383799165	0.8196303068523642
1.388628768411829	2.822459293885455
1.3932575309732018	4.87584242610055
1.3979017227431125	7.003044296472515
1.4025613951522564	11.618297050833245
1.407236599802764	10.34631587837992
1.4119273884687735	15.96488101687686
1.4166338130970026	13.654855655149259
1.4213559258073263	16.53668475838706
1.4260937788933508	30.03960368756497
1.4308474248229952	58.26211746364794
1.4356169162390722	80.33148173877507
1.4404023059598692	159.3418917607762
1.4452036469797356	295.7703707302092
1.450020992469668	659.968715178791
1.4548543957779003	1311.304431126771
1.4597039104304934	1876.9370411321195
1.4645695901319284	1092.8705017252885
1.469451488765702	380.9158175639099
1.4743496603949209	138.6484162800133
1.479264159262904	137.511462951244
1.4841950397937806	105.80013133235578
1.4891423565930935	88.73719619767117
1.4941061644484037	118.2071486553738
1.4990865183298985	180.0447861048415
1.5040834733909982	278.48388153720947
1.5090970849689684	278.7129742913636
1.5141274085855316	79.02897409305454
1.5191744999474837	218.8161219040744
1.5242384149473087	548.5339826815419
1.5293192096638	1091.9493805918214
1.5344169403626793	1317.1363530702795
1.5395316634972218	1582.999717160574
1.544663435708879	2741.0342222033123
1.5498123138279087	5033.226370402493
1.554978354874002	9340.964968826407
1.5601616160569156	16292.486727880323
1.5653621547771055	30732.468101918843
1.5705800286263625	51960.023323457266
1.5758152953884506	68880.9898860722
1.5810680130397454	86542.07780611044
1.5863382397498782	100274.93808291019
1.5916260338823778	112412.33662855206
1.5969314539953192	111198.26765180065
1.6022545588419705	92843.40851355423
1.6075954073714436	65175.1487602229
1.6129540587293487	37904.645081029434
1.6183305722584467	17316.8305034125
1.6237250074993084	6709.143143022521
1.6291374241909726	3004.343893150177
1.6345678822716092	1915.275389444047
1.6400164418791816	1488.1475485979129
1.6454831633521123	1616.3127540246846
1.6509681072299527	1617.8099967099984
1.6564713342540527	3124.7217001437702
1.6619929053682332	5203.374022130929
1.6675328817194608	2228.084883639914
1.6730913246585257	1303.9077905136226
1.6786682957407209	2777.935108293288
1.6842638567265233	3061.9021821979454
1.6898780695822784	1677.1469101584357
1.6955109964808863	784.6642005358003
1.7011626998024894	540.0466367641363
1.7068332421351646	1228.6085747291966
1.7125226862756153	1916.0773118801853
1.7182310952298672	2698.1801933529186
1.7239585322139668	2265.816322798602
1.7297050606546804	1130.9224423034038
1.7354707441901962	1128.0085570311085
1.7412556466708302	1735.929726612235
1.747059832159733	2833.248680155148
1.752883364933599	3558.477846099854
1.7587263094833776	2841.180799990136
1.7645887305149892	2139.284272369208
1.7704706929500391	1542.31892680818
1.7763722619265396	1292.6220645408082
1.7822935027996283	1127.4126154131338
1.7882344811422937	600.9557050509071
1.7941952627461015	291.33577823753745
1.8001759136219222	270.6461934285501
1.8061765000006618	125.19410615270911
1.8121970883339975	101.78093659847416
1.818237745295111	103.59960132757698
1.8242985377794283	158.76396144190988
1.8303795329053596	66.52268110331335
1.8364807980150446	21.114305987469947
1.8426024006750947	52.9841187573431
1.8487444086773455	79.0325132985281
1.8549068900396033	58.078325595469394
1.861089913006402	29.112905173639895
1.8672935460497566	10.981223577256463
1.873517857869923	7.4698609529454085
1.879762917396156	73.27108125431842
1.8860287937874767	169.24674996914274
1.8923155564334353	204.0352442264591
1.8986232749548801	160.98125519010483
1.9049520192047298	53.90538886125282
1.9113018592687456	44.73467514012245
1.9176728654663082	45.406202055659236
1.9240651083511964	55.17913929175407
1.9304786587123668	22.17237131621457
1.9369135875747419	5.619972342374883
1.9433699661999908	4.6027925931177585
1.9498478660873244	10.785335187059454
1.9563473589742824	32.51217534143382
1.9628685168375302	88.4751640972457
1.9694114118936552	138.62979652260157
1.9759761165999676	149.25063018022757
1.9825627036553009	169.55238275052096
1.9891712460008188	237.54305586624048
1.9958018168208218	308.26488121943083
2.002454489543558	310.83134722580365
2.0091293378420367	262.2529486710781
2.0158264356348434	252.657098721675
2.02254585708696	262.0353163870018
2.029287676610583	443.5263952339303
2.036051968865952	513.6908047179091
2.042838808762172	581.9322661939858
2.049648271458046	697.8753211649458
2.0564804323629065	766.9087099333996
2.0633353671374497	791.0131454903692
2.0702131516945745	799.7148080767067
2.0771138622002234	749.6525455712914
2.084037575074224	709.2387916747731
2.0909843669911385	672.1608473615223
2.097954314881109	626.6903185044632
2.1049474959307126	607.6460823640866
2.1119639875838154	610.8077340103387
2.1190038675424283	608.8864729031903
2.12606721376757	615.3575872823308
2.1331541044801288	605.4786833615236
2.140264618161729	611.3961844813944
2.147398833555602	620.0778570962706
2.154556829667454	557.4275570509402
2.1617386857663456	486.0436089210117
2.1689444813855667	430.86329566320455
2.176174296323519	393.3675327127993
2.1834282106445975	348.4252165475558
2.19070630468008	213.09488490432543
2.1980086590290138	64.52723550753352
2.2053353545591103	32.178271663173675
2.2126864724076407	60.70677904429434
2.220062093982333	35.63718656480299
2.2274623009622747	29.868302740972517
2.2348871752988155	25.37857819993542
2.2423367992164787	16.08800572283263
2.2498112552138667	9.310363044087504
2.25731062606458	8.473789528469233
2.2648349948181288	2.5839179390682303
2.272384444800856	3.1872602839454727
2.2799590596168593	7.335689868405675
2.2875589231489153	5.471431321857233
2.295184119559412	4.040983500536553
2.302834733291277	9.825860209693879
2.3105108490689146	26.67259102380103
2.3182125518991445	16.380510847238273
2.325939927072142	6.305926372979923
2.3336930601623824	5.150288382843039
2.341472037029591	6.922765963705265
2.3492769438196897	5.156336200694081
2.3571078669657557	16.245859059134133
2.364964893188975	29.710381376887433
2.372848109499605	13.923849597161789
