#wavelength (micron)	surface_flux (erg / (cm2 micron s))
0.40133895199999997	0.017263534594342426
0.40267674850666674	0.015622240839543803
0.40401900433502225	0.0027450237497693387
0.4053657343494724	0.0030321627537463003
0.4067169534639707	0.025315661670529295
0.40807267664218394	0.12294034724862678
0.4094329188976579	0.40802643139620054
0.41079769529398347	1.052743110209018
0.41216702094496344	2.2931369741578784
0.41354091101477997	4.407531351583513
0.4149193807181627	7.619281235383137
0.41630244532055655	11.871706692478995
0.41769012013829176	15.45298712224468
0.41908242053875283	11.901332536644615
0.4204793619405487	4.241822623113035
0.42188095981368384	12.422775821019439
0.42328722967972954	45.050661098180655
0.4246981871119953	80.43239438387415
0.42611384773570193	111.41212121724325
0.4275342272281543	144.44836112373605
0.4289593413189149	181.59344205004467
0.43038920578997797	223.77996726167282
0.4318238364759446	271.3989618121135
0.43326324926419774	325.88618261095297
0.4347074600950785	387.1583959403554
0.4361564849620621	455.30242502317907
0.43761033991193565	531.1242345668704
0.4390690410449755	614.674489987786
0.44053260451512544	709.0354308457283
0.4420010465301759	816.4595880627099
0.44347438335194317	937.1523803763549
0.4449526312964497	1073.0027586470555
0.44643580673410455	1214.5120501007173
0.44792392608988496	1364.9685005323422
0.4494170058435179	1530.030362831124
0.450915062529663	1716.2268550359659
0.4524181127380953	1905.0738683840748
0.45392617311388894	1906.0854079529677
0.45543926035760196	1433.562668587969
0.45695739122546064	1093.8460642337827
0.4584805825295456	443.9117451666298
0.46000885113797746	224.18840162301586
0.46154221397510403	190.0026664804391
0.4630806880216877	152.9071959787861
0.4646242903150934	120.83121203342697
0.4661730379494771	96.34744071875542
0.4677269480759754	77.18444716877946
0.4692860379028953	60.64711567965649
0.47085032469590504	46.828625086962404
0.4724198257782247	35.80888940048562
0.47399455853081884	27.307502688943288
0.4755745403925883	21.037299514656734
0.4771597888605636	16.501750366069984
0.47875032149009894	13.317003144108119
0.4803461558950659	10.611302727200533
0.48194730974804956	8.178113248016816
0.48355380078054305	6.18853379265104
0.4851656467831449	4.69706027626216
0.48678286560575545	3.7162294470464654
0.4884054751577746	3.0583466866522047
0.4900334934083006	2.573744006364406
0.4916669383863283	2.2055803466868573
0.4933058281809494	1.8992406492835776
0.4949501809415526	1.6416501711525644
0.4966000148780246	1.4189968515037092
0.4982553482609513	1.199067261623318
0.4999161994218212	1.0036307487782714
0.5015825867532273	0.8439696793892253
0.5032545287090715	0.7269371540032117
0.5049320438047684	0.684036476796915
0.506615150617451	0.712108491874721
0.5083038677861758	0.7338739871079619
0.5099982140121297	0.7573346323683705
0.5116982080588369	0.7840063506679869
0.5134038687523664	0.8113592644272763
0.515115214981541	0.8428882126749411
0.5168322656981462	0.8726017657962831
0.5185550399171401	0.9118639682440882
0.5202835567168639	0.9481890226596064
0.5220178352392535	0.9813174314293753
0.5237578946900511	1.0133235092613881
0.525503754339018	1.048168313359576
0.527255433520148	1.0839218705320535
0.5290129516318819	1.1207146444665685
0.5307763281373216	1.1611006556232195
0.532545582564446	1.2053270236452651
0.5343207345063276	1.2504640451841729
0.5361018036213486	1.2948560602105887
0.5378888096334199	1.3426366560441343
0.5396817723321979	1.3892834870205093
0.5414807115733054	1.4358466570552306
0.5432856472785497	1.49570019922202
0.545096599436145	1.5428241498375996
0.5469135881009322	1.583286316656843
0.5487366333946019	1.6614173706066422
0.5505657555059172	1.73602967751914
0.5524009746909371	1.805620283580481
0.5542423112732402	1.869576269034033
0.556089785644151	1.9346268150955641
0.557943418262965	1.997821189847302
0.5598032296571749	2.055040190623619
0.5616692404226988	2.1045650722586218
0.5635414712241079	2.1502589982756612
0.5654199427948549	2.1823730689885625
0.5673046759375044	2.1591332367393563
0.569195691523963	2.129905897046546
0.5710930104957095	2.153858442387352
0.5729966538640286	2.1637650613671413
0.5749066427102419	2.1202921782288704
0.576822998185943	2.040021434226126
0.5787457415132294	1.9661677574978447
0.5806748939849402	1.8497079910998033
0.58261047696489	1.6894915247061826
0.5845525118881064	1.45662521805597
0.5865010202610669	0.9717491931054946
0.588456023661937	0.35017114473312805
0.5904175437408102	0.32361557526283635
0.5923856022199464	1.109632696848123
0.5943602208940129	2.118970477504306
0.5963414216303263	3.070662048710046
0.598329226369094	4.06757703487072
0.6003236571236578	5.2864956310717774
0.6023247359807368	6.750263821113804
0.6043324851006725	8.481933484192016
0.6063469267176749	10.470706187599232
0.6083680831400672	12.688036308601896
0.610395976750534	15.19841148389872
0.6124306300063692	17.956149948017575
0.6144720654397238	21.105457154095927
0.6165203056578563	24.57038238743402
0.6185753733433824	28.49170910926614
0.6206372912545272	32.87021577438901
0.6227060822253756	37.73074453377847
0.6247817691661269	42.99513455134007
0.6268643750633474	48.203227662542496
0.6289539229802253	54.87519480362406
0.6310504360568261	63.012687978796365
0.6331539375103489	71.22594736645274
0.6352644506353834	82.16044507773168
0.6373819988041681	92.06530494162357
0.6395066054668487	101.69142346172262
0.6416382941517382	115.32634954360236
0.6437770884655775	126.3471463065357
0.6459230120937961	126.44037935824916
0.6480760888007754	140.9295926317415
0.6502363424301114	172.85129918086102
0.6524037969048785	198.2091324824733
0.6545784762278948	222.65743951656324
0.6567604044819878	247.60068369596797
0.6589496058302612	284.7073455639498
0.6611461045163621	322.5356357087744
0.66334992486475	372.27285935916126
0.6655610912809659	422.8036830219027
0.6677796282519025	485.83383001835676
0.6700055603460756	532.3039988388531
0.6722389122138959	600.3944283880472
0.6744797085879423	697.4213503228261
0.6767279742832354	767.6389260889221
0.6789837341975129	825.2618429787751
0.6812470133115047	869.4850576813768
0.6835178366892097	892.5295521451283
0.6857962294781739	877.5080836284194
0.6880822169097679	828.5327689176876
0.6903758242994671	732.7010934989927
0.6926770770471321	581.8110608937695
0.6949860006372892	571.8933487718713
0.6973026206394136	648.391520366297
0.6996269627082117	640.0065229010087
0.7019590525839058	582.5444438778294
0.7042989160925188	617.7200377167289
0.7066465791461606	672.6506274839962
0.7090020677433145	699.8018017750259
0.7113654079691256	725.9838049134053
0.7137366259956894	725.1704257434229
0.7161157480823418	572.8292484117303
0.7185028005759496	453.7989473392334
0.7208978099112028	499.818873273235
0.7233008026109069	574.6315368244583
0.7257118052862767	566.2450188504047
0.728130844637231	603.4157304397324
0.7305579474526884	561.5516363418684
0.7329931406108642	556.1943096022845
0.7354364510795671	569.064397330665
0.7378879059164991	679.3209232171678
0.7403475322695541	832.5610449414864
0.7428153573771193	942.2454916261239
0.7452914085683765	1005.8855398024882
0.7477757132636044	1091.971099488571
0.7502682989744831	1120.0763848143245
0.7527691933043982	1150.1716012684763
0.7552784239487462	1192.0195473987656
0.7577960186952422	1226.0085155607017
0.7603220054242263	1212.5817130094906
0.7628564121089738	1020.6335710505443
0.7653992668160038	535.7332411684911
0.7679505977053904	312.8097917868576
0.7705104330310751	484.42696674096766
0.7730788011411788	955.2484807182236
0.7756557304783162	1399.7063109603534
0.7782412495799106	1638.5136551007677
0.7808353870785104	1762.7881674025339
0.7834381717021055	2038.3342846847852
0.7860496322744459	2124.444846677431
0.7886697977153608	2381.812836344954
0.7912986970410787	2883.2764592756057
0.793936359364549	2989.1448163962987
0.7965828138957642	3117.742865909862
0.7992380899420836	3570.2057818360036
0.8019022169085571	4074.560569662641
0.8045752242982523	4485.180761537948
0.80725714171258	4604.523824480079
0.809947998851622	3852.5855370151344
0.8126478255144608	2961.8621912912317
0.8153566515995091	2562.151341572048
0.8180745071048409	3427.9198739783196
0.8208014221285237	4948.3037628023485
0.8235374268689521	5215.417828862259
0.8262825516251822	6367.591862280276
0.8290368267972661	6350.1656345495585
0.8318002828865904	6225.5538125878265
0.8345729504962124	6008.249169861534
0.8373548603311998	6361.547442616642
0.8401460431989706	8793.343552807564
0.8429465300096338	9496.33506490292
0.8457563517763327	10840.946961592561
0.8485755396155872	12542.810766002433
0.8514041247476393	13592.142899816463
0.8542421384967981	15362.385888518886
0.8570896122917875	17631.049699158364
0.8599465776660935	19691.220912018616
0.8628130662583139	21289.513255555306
0.8656891098125085	22694.97537833587
0.8685747401785502	23670.11269529954
0.8714699893124788	24568.560855925323
0.8743748892768537	25994.698663865107
0.8772894722411099	27427.58850527359
0.8802137704819137	27634.89599258153
0.8831478163835201	26494.432680398786
0.8860916424381319	21155.949767443457
0.8890452812462591	11060.500576656024
0.89200876551708	4720.344695673324
0.8949821280688037	6430.292157933365
0.8979654018290332	7192.237192767244
0.90095861983513	7444.088877352292
0.9039618152345804	14326.799775553538
0.9069750212853626	14440.353866992264
0.9099982713563137	15937.757146046897
0.9130315989275016	22098.45957870974
0.9160750375905932	24319.793960570052
0.9191286210492287	35011.24068043701
0.9221923831193928	54736.14042654356
0.9252663577297908	44791.97181743044
0.9283505789222235	15905.420960646423
0.9314450808519644	2534.9053981617462
0.9345498977881376	2199.851766375349
0.9376650641140981	6333.093844222277
0.940790614327812	14621.577266166762
0.9439265830422381	16649.445320929
0.9470730049857122	16307.720710395404
0.9502299150023314	10053.195506915592
0.9533973480523392	9502.821795932958
0.9565753392125138	10898.20756766694
0.9597639236765556	10152.37822558705
0.9629631367554774	7035.623639969977
0.9661730138779958	20970.54008520732
0.9693935905909224	42486.31544878895
0.972624902559559	50047.04217301431
0.9758669855680909	43243.25032004147
0.9791198755199847	45247.46277945529
0.9823836084383848	42341.796594324485
0.9856582204665127	56741.07842897885
0.9889437478680678	78010.21605446374
0.9922402270276282	78306.63206505566
0.9955476944510537	80651.09038123046
0.9988661867658906	82798.10255864538
1.002195740721777	78167.70527958135
1.0055363931908496	96450.77610884488
1.0088881811681525	112846.13973842318
1.0122511417720463	125070.75616483825
1.01562531224462	94762.40471486718
1.019010729952102	68670.30853611471
1.0224074323852759	75115.85537529422
1.0258154571598936	114871.00683051317
1.0292348420170931	137698.3261442161
1.0326656248238169	120319.97973228298
1.0361078435732296	95936.94892663576
1.0395615363851405	146051.77748287047
1.0430267415064245	234572.90801024425
1.0465034973114462	272020.5963792279
1.0499918423024843	261195.48151025127
1.0534918151101593	337820.52033553884
1.05700345449386	452427.3401523273
1.0605267993421728	508351.1044677945
1.0640618886733135	530659.7905684622
1.067608761635558	520136.7762897755
1.0711674575076766	516296.75641630986
1.0747380156993689	474686.4900437331
1.0783204757517002	411662.5428608838
1.0819148773375393	388076.2000239587
1.085521260261998	349609.458439904
1.0891396644628712	300198.40217762644
1.092770130011081	215361.72628779153
1.0964126971111179	119946.17922303166
1.1000674061014886	83806.94387809209
1.10373429745516	60171.22915094771
1.1074134117800107	18570.847460162244
1.1111047898192774	5960.273777501593
1.1148084724520084	4425.2791297679405
1.1185245006935154	3509.393744739139
1.1222529156958272	4198.924654620697
1.1259937587481466	4244.902711577124
1.1297470712773072	4078.2207006562776
1.1335128948482316	1875.3044673677978
1.1372912711643925	4127.0453854097495
1.1410822420682738	8860.420634998938
1.1448858495418348	6458.8634256361875
1.1487021357069744	2247.5238013664
1.1525311428259977	831.819447006418
1.1563729133020846	238.20131227154695
1.1602274896797582	153.834733993865
1.1640949146453576	1257.5945285550747
1.1679752310275089	3892.168576580575
1.1718684817976006	2058.9439426909385
1.1757747100702594	790.3263370113027
1.1796939591038271	2959.431235846287
1.1836262723008397	3279.818952280339
1.1875716932085094	3346.49287041849
1.1915302655192046	4156.793694502441
1.1955020330709352	7696.701838149972
1.1994870398478386	17099.713780526545
1.2034853299806647	23692.22117329094
1.207496947747267	23238.48529189422
1.2115219375730912	27079.33472705758
1.2155603440316685	32537.7059773652
1.2196122118451074	44422.29802627877
1.2236775858845912	59147.286777743735
1.2277565111708733	109239.16342423271
1.2318490328747762	157278.89097964586
1.2359551963176922	204438.84833412286
1.2400750469720847	306818.2887161668
1.2442086304619917	428299.5305037904
1.248355992563532	513693.9447558383
1.2525171792054102	541426.4427594837
1.2566922364694284	630787.9637176694
1.2608812105909932	776490.2390204001
1.2650841479596302	876042.7569903514
1.2693010951194956	952927.7662937926
1.273532098769894	825929.7482316482
1.2777772057657937	563095.115711386
1.2820364631183463	381008.8215383378
1.2863099179954076	225441.3431299572
1.2905976177220593	161556.1483019517
1.2948996097811327	142322.49230415342
1.2992159418137368	130960.65350651812
1.3035466616197826	104599.47243574682
1.3078918171585154	75457.8300457498
1.3122514565490437	36846.34501296461
1.3166256280708741	36621.608098170844
1.3210143801644436	41231.47998763858
1.3254177614316587	32814.92610366347
1.329835820636431	15324.754803891785
1.3342686067052192	5573.218322149556
1.33871616872757	2217.241793435297
1.343178555956662	611.3833235951066
1.347655817809851	110.3991827221119
1.352148003869217	63.63783783912041
1.3566551638821147	28.5137894721559
1.3611773477617217	7.395713506002502
1.3657146055875944	6.287086081184407
1.3702669876062197	8.115070389231212
1.3748345442315741	30.581415426160618
1.3794173260456792	46.26580443461208
1.384015383799165	14.397793006759256
1.388628768411829	21.677197858578108
1.3932575309732018	40.61596468995596
1.3979017227431125	49.740439916815646
1.4025613951522564	124.96920552740895
1.407236599802764	127.74217382077444
1.4119273884687735	164.62482776039877
1.4166338130970026	118.99401913239159
1.4213559258073263	128.8175650934119
1.4260937788933508	230.83022459757763
1.4308474248229952	290.46035511490254
1.4356169162390722	395.3360693255644
1.4404023059598692	1333.0903373524911
1.4452036469797356	2121.0873668499075
1.450020992469668	2193.9447363857666
1.4548543957779003	2068.6103721088743
1.4597039104304934	2348.3110330869076
1.4645695901319284	2360.721754333539
1.469451488765702	1070.785374979332
1.4743496603949209	228.75719212076885
1.479264159262904	207.4914356502387
1.4841950397937806	251.56746394250868
1.4891423565930935	305.3601606323749
1.4941061644484037	534.4843608733613
1.4990865183298985	883.001134692387
1.5040834733909982	736.7978685897497
1.5090970849689684	892.6205970902353
1.5141274085855316	295.41930307763624
1.5191744999474837	566.6103716839173
1.5242384149473087	1529.4327093370332
1.5293192096638	3426.6637915091546
1.5344169403626793	3436.120018176357
1.5395316634972218	4987.629152978735
1.544663435708879	6391.071126544655
1.5498123138279087	11199.599277499605
1.554978354874002	20382.67884407817
1.5601616160569156	24511.169906751547
1.5653621547771055	51024.8065240406
1.5705800286263625	107135.16829444398
1.5758152953884506	147001.38876754604
1.5810680130397454	183458.8763872905
1.5863382397498782	216129.12329928332
1.5916260338823778	279253.51922022796
1.5969314539953192	252810.38677284666
1.6022545588419705	167349.86540360103
1.6075954073714436	97763.19730636962
1.6129540587293487	48461.48635447027
1.6183305722584467	22006.915277118253
1.6237250074993084	11760.510174938761
1.6291374241909726	7950.3549411120775
1.6345678822716092	6098.8933163612
1.6400164418791816	2973.1989707448774
1.6454831633521123	3853.731996837284
1.6509681072299527	4425.509190231666
1.6564713342540527	7482.459771492542
1.6619929053682332	11916.367089119785
1.6675328817194608	5254.7737636683305
1.6730913246585257	1240.34312391929
1.6786682957407209	4803.542024920411
1.6842638567265233	7091.763337285172
1.6898780695822784	3837.75719546823
1.6955109964808863	853.2577068400421
1.7011626998024894	919.7914630717814
1.7068332421351646	2522.574004445989
1.7125226862756153	3460.5911069051426
1.7182310952298672	5281.166040352874
1.7239585322139668	4922.615170566447
1.7297050606546804	1724.1391838651455
1.7354707441901962	2314.013670386295
1.7412556466708302	3643.6732593302495
1.747059832159733	6068.106159251964
1.752883364933599	8176.74898534343
1.7587263094833776	5436.622526376501
1.7645887305149892	3894.2695420126247
1.7704706929500391	3069.6727577893794
1.7763722619265396	5088.776738158392
1.7822935027996283	4779.215069837196
1.7882344811422937	3016.4086627739994
1.7941952627461015	1638.0255083850898
1.8001759136219222	1364.1895031900024
1.8061765000006618	969.7971289115457
1.8121970883339975	1049.8022732606648
1.818237745295111	1915.8623720112535
1.8242985377794283	3092.9451896062874
1.8303795329053596	1180.5343063140724
1.8364807980150446	316.869419685843
1.8426024006750947	991.6695687016007
1.8487444086773455	1637.9560408238513
1.8549068900396033	1306.7796736127286
1.861089913006402	502.93048700662484
1.8672935460497566	198.39956620498424
1.873517857869923	189.49545925410743
1.879762917396156	1366.7173727729996
1.8860287937874767	2691.306765540137
1.8923155564334353	3267.6141258845746
1.8986232749548801	2866.2637450702505
1.9049520192047298	1097.5010506497426
1.9113018592687456	842.9099824684185
1.9176728654663082	461.42232919051304
1.9240651083511964	519.5069684741802
1.9304786587123668	208.26637100339775
1.9369135875747419	43.60753093061117
1.9433699661999908	61.094520063267495
1.9498478660873244	75.40904943770195
1.9563473589742824	230.86512791129297
1.9628685168375302	839.1891188455877
1.9694114118936552	1402.1857834764817
1.9759761165999676	1976.461103966307
1.9825627036553009	2389.9437155825117
1.9891712460008188	2940.2038918663566
1.9958018168208218	3786.524643834186
2.002454489543558	3847.0914849746805
2.0091293378420367	3196.4375210548797
2.0158264356348434	2568.154735665151
2.02254585708696	2231.0741513967214
2.029287676610583	4481.211395178094
2.036051968865952	5311.695287403587
2.042838808762172	6572.27973371444
2.049648271458046	8068.9464947066235
2.0564804323629065	10053.692914341762
2.0633353671374497	12971.28848200871
2.0702131516945745	16927.057147943313
2.0771138622002234	15902.083928676537
2.084037575074224	15674.206679593543
2.0909843669911385	15653.208437307718
2.097954314881109	15409.97955103442
2.1049474959307126	16990.882093463057
2.1119639875838154	18392.054370940717
2.1190038675424283	16954.92383352202
2.12606721376757	16226.961341210239
2.1331541044801288	14972.920415176346
2.140264618161729	12545.469821671853
2.147398833555602	11241.461750373344
2.154556829667454	9417.31767039626
2.1617386857663456	6837.466290075157
2.1689444813855667	6266.006946245384
2.176174296323519	5582.2156741534845
2.1834282106445975	4854.896039314435
2.19070630468008	2331.7115620217583
2.1980086590290138	435.20386522541526
2.2053353545591103	384.95417305292244
2.2126864724076407	904.7629077912455
2.220062093982333	568.613383542426
2.2274623009622747	337.76793965479095
2.2348871752988155	241.89333429554264
2.2423367992164787	127.12426610565957
2.2498112552138667	78.66066954947485
2.25731062606458	69.37772552168039
2.2648349948181288	28.503802436169842
2.272384444800856	50.659047645036985
2.2799590596168593	114.06174653346558
2.2875589231489153	81.45527273469311
2.295184119559412	68.54168733775687
2.302834733291277	236.41936673946046
2.3105108490689146	475.8716135914741
2.3182125518991445	242.1581580538169
2.325939927072142	68.26289604420658
2.3336930601623824	64.59026565282382
2.341472037029591	25.632424889361957
2.3492769438196897	37.601104495535274
2.3571078669657557	250.6543857146704
2.364964893188975	414.12383741561194
