#wavelength (micron)	surface_flux (erg / (cm2 micron s))
0.40133895199999997	0.0017652891753506576
0.40267674850666674	0.002164108878154405
0.40401900433502225	0.0009780208163129313
0.4053657343494724	0.0011214644343440616
0.4067169534639707	0.003499878655858814
0.40807267664218394	0.00925765748687861
0.4094329188976579	0.019847672855738296
0.41079769529398347	0.03623308907160828
0.41216702094496344	0.05897373726559397
0.41354091101477997	0.08875352433242242
0.4149193807181627	0.12502087812165524
0.41630244532055655	0.16688971201058128
0.41769012013829176	0.21059840357236567
0.41908242053875283	0.24422136057135857
0.4204793619405487	0.28049739036728444
0.42188095981368384	0.36348152697407765
0.42328722967972954	0.4917469167619754
0.4246981871119953	0.6346437991805014
0.42611384773570193	0.7819628023685161
0.4275342272281543	0.9418718609381193
0.4289593413189149	1.1171687410596045
0.43038920578997797	1.3114490048185643
0.4318238364759446	1.5289255466098204
0.43326324926419774	1.7714165945238287
0.4347074600950785	2.040697993834703
0.4361564849620621	2.338365192912069
0.43761033991193565	2.6659422463983202
0.4390690410449755	3.022800655697
0.44053260451512544	3.4162997702391924
0.4420010465301759	3.8299366627421407
0.44347438335194317	4.310074783066521
0.4449526312964497	4.877493944275701
0.44643580673410455	5.485547222323027
0.44792392608988496	6.166953989242723
0.4494170058435179	6.93144256740203
0.450915062529663	7.777244341676037
0.4524181127380953	8.69276566454245
0.45392617311388894	9.699255576930101
0.45543926035760196	10.843817417412966
0.45695739122546064	11.599791940090869
0.4584805825295456	12.112614821725167
0.46000885113797746	13.012033654235376
0.46154221397510403	13.92318108393244
0.4630806880216877	14.74441270948242
0.4646242903150934	15.43986430661995
0.4661730379494771	15.98248901654668
0.4677269480759754	16.373902500327944
0.4692860379028953	16.505116969001488
0.47085032469590504	16.380260021463496
0.4724198257782247	15.979722334266912
0.47399455853081884	15.317387452374804
0.4755745403925883	14.535854169178101
0.4771597888605636	13.751437182912595
0.47875032149009894	13.0528978926957
0.4803461558950659	12.234428654695353
0.48194730974804956	11.265824446913832
0.48355380078054305	10.254906540434645
0.4851656467831449	9.341020448112806
0.48678286560575545	8.684165860547179
0.4884054751577746	8.179293099521514
0.4900334934083006	7.754262429757235
0.4916669383863283	7.342921310787665
0.4933058281809494	6.90395439613521
0.4949501809415526	6.440258173803374
0.4966000148780246	5.914069281776356
0.4982553482609513	5.251168064105793
0.4999161994218212	4.555983918128821
0.5015825867532273	3.8597916648842623
0.5032545287090715	3.2463538003266645
0.5049320438047684	3.024837935413658
0.506615150617451	3.0432948280202505
0.5083038677861758	3.032489440487271
0.5099982140121297	3.0640776593819634
0.5116982080588369	3.1060710153609183
0.5134038687523664	3.1665217739571747
0.515115214981541	3.2564354766495343
0.5168322656981462	3.364742239641526
0.5185550399171401	3.4794204243203963
0.5202835567168639	3.5775620852099075
0.5220178352392535	3.6487907298553455
0.5237578946900511	3.6903068197615307
0.525503754339018	3.751500014946097
0.527255433520148	3.8113935393682414
0.5290129516318819	3.859131134742532
0.5307763281373216	3.9056055787657957
0.532545582564446	3.9667720288046877
0.5343207345063276	4.030821434469559
0.5361018036213486	4.072233864173348
0.5378888096334199	4.092997416279797
0.5396817723321979	4.070024482986654
0.5414807115733054	4.065680848881314
0.5432856472785497	4.181117545931682
0.545096599436145	4.271902993124676
0.5469135881009322	4.335916608999251
0.5487366333946019	4.468458499980445
0.5505657555059172	4.59702752583786
0.5524009746909371	4.733296941237876
0.5542423112732402	4.864122110345193
0.556089785644151	4.979259395575382
0.557943418262965	5.080164005698615
0.5598032296571749	5.160090214285347
0.5616692404226988	5.222586470048237
0.5635414712241079	5.2789453637772725
0.5654199427948549	5.292498431010941
0.5673046759375044	5.12929662086353
0.569195691523963	4.985164813565075
0.5710930104957095	5.107464675048876
0.5729966538640286	5.087757273858947
0.5749066427102419	4.990963706943321
0.576822998185943	4.864415844208641
0.5787457415132294	4.705238890829319
0.5806748939849402	4.456162454423535
0.58261047696489	4.122349826542681
0.5845525118881064	3.6356500900598836
0.5865010202610669	2.5596113199879245
0.588456023661937	1.0021235410314744
0.5904175437408102	0.9394003917723823
0.5923856022199464	2.8675151413668685
0.5943602208940129	4.8026136343564545
0.5963414216303263	6.522988987520805
0.598329226369094	8.49669104045304
0.6003236571236578	10.982614940356543
0.6023247359807368	14.149669799758748
0.6043324851006725	18.075518785549274
0.6063469267176749	22.800052970366117
0.6083680831400672	28.142204427600586
0.610395976750534	34.29079617182064
0.6124306300063692	41.39693118761727
0.6144720654397238	49.54582512492816
0.6165203056578563	58.73615799615192
0.6185753733433824	69.24645067697905
0.6206372912545272	81.05754830481219
0.6227060822253756	93.85428654192842
0.6247817691661269	106.00719795718413
0.6268643750633474	118.18607219763045
0.6289539229802253	138.7598814448886
0.6310504360568261	162.91244451941245
0.6331539375103489	185.53903547666113
0.6352644506353834	215.84143187778275
0.6373819988041681	245.84812962837668
0.6395066054668487	278.67352407182284
0.6416382941517382	316.94748332018173
0.6437770884655775	344.35061895975355
0.6459230120937961	347.4728078548255
0.6480760888007754	383.92864544067066
0.6502363424301114	466.8624691972316
0.6524037969048785	532.9892615190739
0.6545784762278948	612.9889663578617
0.6567604044819878	680.627055165013
0.6589496058302612	787.3341311817161
0.6611461045163621	926.8314845722366
0.66334992486475	1081.3509206285146
0.6655610912809659	1245.8962223068215
0.6677796282519025	1413.7046344838036
0.6700055603460756	1559.4664770674824
0.6722389122138959	1749.5897476279786
0.6744797085879423	1995.9665782965403
0.6767279742832354	2198.7182503964195
0.6789837341975129	2330.465805748614
0.6812470133115047	2374.147860965279
0.6835178366892097	2322.248578835376
0.6857962294781739	2176.538689551163
0.6880822169097679	1930.0497036184454
0.6903758242994671	1509.5503025423643
0.6926770770471321	1003.3382688413511
0.6949860006372892	908.4145499166775
0.6973026206394136	1028.3199835794458
0.6996269627082117	967.0484737417967
0.7019590525839058	865.8859974770613
0.7042989160925188	873.2790128995113
0.7066465791461606	919.7006667924796
0.7090020677433145	955.5206480062319
0.7113654079691256	950.4264832002398
0.7137366259956894	857.2925907938701
0.7161157480823418	496.87525687795153
0.7185028005759496	248.10526201156762
0.7208978099112028	386.61252114859013
0.7233008026109069	447.45584014291165
0.7257118052862767	355.9174564164203
0.728130844637231	382.425890604636
0.7305579474526884	379.47749697458914
0.7329931406108642	450.795308967594
0.7354364510795671	534.3058642851175
0.7378879059164991	638.7131417945421
0.7403475322695541	767.9635037223983
0.7428153573771193	908.4667028899601
0.7452914085683765	1031.5905718209597
0.7477757132636044	1158.4942502512347
0.7502682989744831	1262.351087732415
0.7527691933043982	1336.289633483517
0.7552784239487462	1390.1901861343995
0.7577960186952422	1416.4142756701071
0.7603220054242263	1414.3641913534873
0.7628564121089738	1259.6434090243445
0.7653992668160038	856.1961147520268
0.7679505977053904	691.8525957241247
0.7705104330310751	866.7659857586591
0.7730788011411788	1266.9229633854611
0.7756557304783162	1657.2400804811666
0.7782412495799106	1928.6153057448869
0.7808353870785104	2107.4084874187706
0.7834381717021055	2299.9385562553875
0.7860496322744459	2353.574204969047
0.7886697977153608	2516.965200107369
0.7912986970410787	2988.640110918053
0.793936359364549	3301.917326658252
0.7965828138957642	3402.7377801490034
0.7992380899420836	3809.0396886392705
0.8019022169085571	4288.1679907567095
0.8045752242982523	4679.075497732495
0.80725714171258	4490.950710671174
0.809947998851622	3255.423261839773
0.8126478255144608	1915.158606426736
0.8153566515995091	1347.0288141088697
0.8180745071048409	2360.91624590076
0.8208014221285237	3668.107915528038
0.8235374268689521	3548.224597619184
0.8262825516251822	4841.691902348392
0.8290368267972661	4913.378197077835
0.8318002828865904	4694.482370474589
0.8345729504962124	4940.638226266962
0.8373548603311998	5967.50051756062
0.8401460431989706	8311.498678165926
0.8429465300096338	10632.72352229252
0.8457563517763327	13374.474061470497
0.8485755396155872	16043.247363134864
0.8514041247476393	18348.982439018902
0.8542421384967981	21152.89793341678
0.8570896122917875	24478.80917047376
0.8599465776660935	27491.737590964553
0.8628130662583139	29875.260352295598
0.8656891098125085	31389.589365588803
0.8685747401785502	31433.833625912786
0.8714699893124788	31169.386212781483
0.8743748892768537	31434.83227634122
0.8772894722411099	31021.402617209045
0.8802137704819137	28637.670098525556
0.8831478163835201	24694.306729415915
0.8860916424381319	15748.329008024368
0.8890452812462591	5332.720634036257
0.89200876551708	1028.8973368095594
0.8949821280688037	603.827187470596
0.8979654018290332	520.5478696910864
0.90095861983513	1026.6152067712244
0.9039618152345804	3352.0366486922703
0.9069750212853626	3767.290293566711
0.9099982713563137	3287.318573357588
0.9130315989275016	4403.334418893889
0.9160750375905932	5163.985686321203
0.9191286210492287	7518.233435211486
0.9221923831193928	10054.028517056984
0.9252663577297908	5611.782037327461
0.9283505789222235	964.4959686120791
0.9314450808519644	15.283706085286727
0.9345498977881376	4.1566955243287635
0.9376650641140981	101.38925431252899
0.940790614327812	271.5528270258722
0.9439265830422381	123.13201282460321
0.9470730049857122	28.82326253582207
0.9502299150023314	39.49064383860424
0.9533973480523392	54.96243301750418
0.9565753392125138	57.33806816813614
0.9597639236765556	83.63857117226179
0.9629631367554774	167.06481171079275
0.9661730138779958	723.8419088568022
0.9693935905909224	2065.1063587920626
0.972624902559559	3011.1257240936266
0.9758669855680909	2929.3560534082994
0.9791198755199847	3978.255219733527
0.9823836084383848	5251.684620444295
0.9856582204665127	7403.712798503781
0.9889437478680678	10895.549306930958
0.9922402270276282	13567.747625410366
0.9955476944510537	14739.893593112482
0.9988661867658906	13554.292134103476
1.002195740721777	7478.636038937472
1.0055363931908496	5262.208899805706
1.0088881811681525	4206.828654803288
1.0122511417720463	3490.4289730866635
1.01562531224462	2073.777785904648
1.019010729952102	1028.339623002011
1.0224074323852759	708.2801872395829
1.0258154571598936	861.2921071485948
1.0292348420170931	1087.375239081458
1.0326656248238169	767.2886616737235
1.0361078435732296	573.4672393549029
1.0395615363851405	876.9069879141206
1.0430267415064245	1218.825436701849
1.0465034973114462	1407.3826952502134
1.0499918423024843	1499.5087340157077
1.0534918151101593	1696.2452370011576
1.05700345449386	1818.4088003539985
1.0605267993421728	1736.2703461746921
1.0640618886733135	1546.6141068824343
1.067608761635558	1301.6190646009081
1.0711674575076766	1072.081414059154
1.0747380156993689	895.8234332919698
1.0783204757517002	756.2761559835534
1.0819148773375393	636.5828057357998
1.085521260261998	539.8343609911178
1.0891396644628712	462.57141423711744
1.092770130011081	375.4917241173452
1.0964126971111179	274.37358872825905
1.1000674061014886	187.41505938024392
1.10373429745516	108.0266618676442
1.1074134117800107	45.35809134605547
1.1111047898192774	13.88094534315374
1.1148084724520084	4.2133558844072265
1.1185245006935154	1.4616389274192196
1.1222529156958272	1.0102134613009315
1.1259937587481466	1.060540026479076
1.1297470712773072	2.562573164862392
1.1335128948482316	2.57285236957205
1.1372912711643925	5.571777463679142
1.1410822420682738	11.718222172260159
1.1448858495418348	6.690038227554147
1.1487021357069744	2.2463081139998997
1.1525311428259977	1.803783844148872
1.1563729133020846	0.6719955958065632
1.1602274896797582	0.45971577569993627
1.1640949146453576	2.251484269982036
1.1679752310275089	7.218967426603324
1.1718684817976006	4.666830482853853
1.1757747100702594	5.940606898948138
1.1796939591038271	15.610080556343258
1.1836262723008397	17.278916597474243
1.1875716932085094	19.69231914077843
1.1915302655192046	28.011976266380838
1.1955020330709352	36.68369890557926
1.1994870398478386	45.820262938056665
1.2034853299806647	54.38151696555446
1.207496947747267	56.21549470557419
1.2115219375730912	61.19460315714234
1.2155603440316685	78.46161378355077
1.2196122118451074	101.44191223431856
1.2236775858845912	141.93764002687033
1.2277565111708733	231.29340520724608
1.2318490328747762	306.06708855856
1.2359551963176922	420.4338554540263
1.2400750469720847	636.4005497634406
1.2442086304619917	953.9358061226
1.248355992563532	1262.449393154754
1.2525171792054102	1394.1870157584253
1.2566922364694284	1689.5612753936339
1.2608812105909932	2419.3202148058645
1.2650841479596302	3435.7863106612767
1.2693010951194956	4269.684370643096
1.273532098769894	4092.017116277945
1.2777772057657937	3492.449649872008
1.2820364631183463	2784.374847812326
1.2863099179954076	1905.1147596511419
1.2905976177220593	1326.451865609848
1.2948996097811327	1152.3815225333537
1.2992159418137368	1044.6900262310053
1.3035466616197826	851.7178385646786
1.3078918171585154	741.3974975197096
1.3122514565490437	538.1844652189651
1.3166256280708741	391.8934817668993
1.3210143801644436	396.4171618053045
1.3254177614316587	428.6667983974359
1.329835820636431	230.8619704989963
1.3342686067052192	73.19840759112334
1.33871616872757	29.34569444184743
1.343178555956662	2.9962562045829864
1.347655817809851	0.1957362801338334
1.352148003869217	0.046043010103351385
1.3566551638821147	0.003110143521337295
1.3611773477617217	0.0003724519354465388
1.3657146055875944	0.0003452328770993675
1.3702669876062197	0.0006524463006343813
1.3748345442315741	0.005596071887198544
1.3794173260456792	0.007559132252336207
1.384015383799165	0.0019674888028253018
1.388628768411829	0.010241419283865323
1.3932575309732018	0.01645273698850432
1.3979017227431125	0.029387246908959476
1.4025613951522564	0.05825547673528615
1.407236599802764	0.05262190273783775
1.4119273884687735	0.10123596977336849
1.4166338130970026	0.10889029081156475
1.4213559258073263	0.17173696757682633
1.4260937788933508	0.3496162632675647
1.4308474248229952	0.7150509534992475
1.4356169162390722	1.2072910666718377
1.4404023059598692	1.834890975350681
1.4452036469797356	4.634361308290265
1.450020992469668	18.299234342705926
1.4548543957779003	49.14516620255287
1.4597039104304934	67.7707903883634
1.4645695901319284	31.89470564379221
1.469451488765702	7.882192122996288
1.4743496603949209	2.323991656524368
1.479264159262904	1.9459508033829869
1.4841950397937806	1.2433617772976007
1.4891423565930935	0.8143201075200972
1.4941061644484037	0.8128141575692894
1.4990865183298985	1.2907859309656304
1.5040834733909982	3.1114652630876742
1.5090970849689684	3.2743692698094993
1.5141274085855316	0.6661788618455042
1.5191744999474837	2.437637482978866
1.5242384149473087	7.236436837299702
1.5293192096638	17.371223375045343
1.5344169403626793	20.345391037731897
1.5395316634972218	28.889570531113076
1.544663435708879	70.36800839427048
1.5498123138279087	175.39532241608802
1.554978354874002	444.4969693700637
1.5601616160569156	1002.5831032287123
1.5653621547771055	2127.5281904435656
1.5705800286263625	3818.6722595024976
1.5758152953884506	5274.93354509034
1.5810680130397454	6638.047393691466
1.5863382397498782	7732.401028174107
1.5916260338823778	8712.835948392129
1.5969314539953192	8842.301327838855
1.6022545588419705	7544.183121178055
1.6075954073714436	5286.658463739458
1.6129540587293487	2948.139625986913
1.6183305722584467	1213.5458399400056
1.6237250074993084	361.9025148335659
1.6291374241909726	100.54212765517822
1.6345678822716092	43.4360840330318
1.6400164418791816	25.9033333249543
1.6454831633521123	24.305784834113574
1.6509681072299527	21.03732075067872
1.6564713342540527	73.65308964489722
1.6619929053682332	146.34478555470994
1.6675328817194608	58.0277978392848
1.6730913246585257	38.55461786726233
1.6786682957407209	77.86256094091041
1.6842638567265233	80.89239914467025
1.6898780695822784	39.74664060421987
1.6955109964808863	17.448862833279417
1.7011626998024894	10.08759216947146
1.7068332421351646	27.841746509370722
1.7125226862756153	49.40391169007371
1.7182310952298672	72.8612236778493
1.7239585322139668	51.136118623963746
1.7297050606546804	19.467505378874
1.7354707441901962	24.54294108249205
1.7412556466708302	50.487408088201676
1.747059832159733	94.46580085639329
1.752883364933599	127.16010446312652
1.7587263094833776	108.23868614956405
1.7645887305149892	77.74092486095927
1.7704706929500391	53.76554748736901
1.7763722619265396	44.5637286504624
1.7822935027996283	38.769576068560404
1.7882344811422937	16.870760636613127
1.7941952627461015	6.941716153392584
1.8001759136219222	6.4164069591206845
1.8061765000006618	2.719625184683211
1.8121970883339975	1.919236976561807
1.818237745295111	1.2451076180940175
1.8242985377794283	1.8383921986247005
1.8303795329053596	0.7311374873494537
1.8364807980150446	0.17309973513920462
1.8426024006750947	0.40463976494613985
1.8487444086773455	0.5305172848214956
1.8549068900396033	0.3472183772011556
1.861089913006402	0.34553681783905527
1.8672935460497566	0.24742714223897327
1.873517857869923	0.08722856523640751
1.879762917396156	0.6265287631492393
1.8860287937874767	1.673205890847414
1.8923155564334353	2.0107838850197886
1.8986232749548801	1.384185662942325
1.9049520192047298	0.44886848335269736
1.9113018592687456	0.4636784666189436
1.9176728654663082	0.5265342751499013
1.9240651083511964	0.6982371414355049
1.9304786587123668	0.32105704376520544
1.9369135875747419	0.09768794561230859
1.9433699661999908	0.050612519715737776
1.9498478660873244	0.07179937631846305
1.9563473589742824	0.33562786178176784
1.9628685168375302	0.9711074750460176
1.9694114118936552	1.367575259498838
1.9759761165999676	1.2894576767204013
1.9825627036553009	1.3942026946033714
1.9891712460008188	2.1711705124309355
1.9958018168208218	2.8060658600940522
2.002454489543558	2.8000134233573344
2.0091293378420367	2.3372301998408638
2.0158264356348434	2.414113139505313
2.02254585708696	2.8804605650194333
2.029287676610583	4.997797248018629
2.036051968865952	5.849117705447639
2.042838808762172	6.13099145998951
2.049648271458046	6.745600345463753
2.0564804323629065	6.857988017874655
2.0633353671374497	6.495701935543547
2.0702131516945745	5.950416072816904
2.0771138622002234	5.142913161192998
2.084037575074224	4.4448203902580365
2.0909843669911385	3.875536333177144
2.097954314881109	3.398289686415081
2.1049474959307126	3.14817468681145
2.1119639875838154	3.137465978644303
2.1190038675424283	3.2864172166381334
2.12606721376757	3.6244632265074284
2.1331541044801288	4.003185644096569
2.140264618161729	4.525670972627391
2.147398833555602	4.956579298180041
2.154556829667454	4.7820841759631545
2.1617386857663456	4.41574944136613
2.1689444813855667	4.070337290956768
2.176174296323519	3.982284873524439
2.1834282106445975	3.6796408265032676
2.19070630468008	2.4111262604427437
2.1980086590290138	0.769657389470819
2.2053353545591103	0.24647058421899345
2.2126864724076407	0.38686831962822055
2.220062093982333	0.20137842234982728
2.2274623009622747	0.16905000328732606
2.2348871752988155	0.1469710203682613
2.2423367992164787	0.1102026904284161
2.2498112552138667	0.06071095397188025
2.25731062606458	0.04399782517754978
2.2648349948181288	0.010833930292844513
2.272384444800856	0.013550113004916587
2.2799590596168593	0.034785667804238626
2.2875589231489153	0.02240734640201797
2.295184119559412	0.015302517037882648
2.302834733291277	0.033756960339426136
2.3105108490689146	0.1345705222546365
2.3182125518991445	0.09924269229552286
2.325939927072142	0.03270944544526309
2.3336930601623824	0.025621259195440782
2.341472037029591	0.05555391875935157
