#wavelength (micron)	surface_flux (erg / (cm2 micron s))
0.40133895199999997	14.27801079736652
0.40267674850666674	11.378077840697555
0.40401900433502225	1.1789252968018415
0.4053657343494724	1.2350638028003609
0.4067169534639707	17.142227098576633
0.40807267664218394	102.29610025151274
0.4094329188976579	368.5251801185747
0.41079769529398347	958.3869736333487
0.41216702094496344	2016.5549601912319
0.41354091101477997	3676.3998694534785
0.4149193807181627	5942.2349209570975
0.41630244532055655	8495.60288858849
0.41769012013829176	10412.64241667348
0.41908242053875283	8252.05106694563
0.4204793619405487	3052.753565283473
0.42188095981368384	6610.792706627525
0.42328722967972954	19702.227314286567
0.4246981871119953	31604.14130584352
0.42611384773570193	39641.78637074416
0.4275342272281543	46761.2443602702
0.4289593413189149	54680.82302678308
0.43038920578997797	62573.15478797261
0.4318238364759446	69309.35671385158
0.43326324926419774	79637.8572850495
0.4347074600950785	84430.87269330393
0.4361564849620621	87228.48190415125
0.43761033991193565	93708.30958444276
0.4390690410449755	104216.13592351708
0.44053260451512544	109017.51680087844
0.4420010465301759	120085.82304571418
0.44347438335194317	136862.13718970327
0.4449526312964497	152955.92283920795
0.44643580673410455	153772.27456679835
0.44792392608988496	155057.1362197604
0.4494170058435179	164541.73458992783
0.450915062529663	170344.87872320306
0.4524181127380953	175122.6794955155
0.45392617311388894	186122.60689607603
0.45543926035760196	148382.56876528455
0.45695739122546064	119069.77072944211
0.4584805825295456	70477.13992888891
0.46000885113797746	50527.894490257575
0.46154221397510403	44842.79213476855
0.4630806880216877	36798.41984031567
0.4646242903150934	28957.21472432132
0.4661730379494771	23883.721966674755
0.4677269480759754	19277.155664669477
0.4692860379028953	14565.623637766104
0.47085032469590504	10268.146702186708
0.4724198257782247	6709.028502596649
0.47399455853081884	4135.4163137378955
0.4755745403925883	2494.144548152567
0.4771597888605636	1520.066241507028
0.47875032149009894	957.8894798548728
0.4803461558950659	610.5774413629501
0.48194730974804956	389.8630463065272
0.48355380078054305	255.950087997794
0.4851656467831449	177.77350910359087
0.48678286560575545	131.93007377127284
0.4884054751577746	103.164810612174
0.4900334934083006	83.59779764853378
0.4916669383863283	68.56426141707055
0.4933058281809494	56.114431930963676
0.4949501809415526	45.76732502787035
0.4966000148780246	36.88278385807872
0.4982553482609513	28.90175905274238
0.4999161994218212	22.064001992861726
0.5015825867532273	16.862140653663193
0.5032545287090715	13.482195478557191
0.5049320438047684	11.752718757137071
0.506615150617451	11.197413764729644
0.5083038677861758	11.019841129160245
0.5099982140121297	10.925129550624758
0.5116982080588369	10.813506866684476
0.5134038687523664	10.723993683671118
0.515115214981541	10.684958441457738
0.5168322656981462	10.654312771609137
0.5185550399171401	10.665181706558467
0.5202835567168639	10.650709219361365
0.5220178352392535	10.62418155812413
0.5237578946900511	10.599519978803256
0.525503754339018	10.589078543411405
0.527255433520148	10.592505370611423
0.5290129516318819	10.61633350954763
0.5307763281373216	10.670754878479348
0.532545582564446	10.752387625018129
0.5343207345063276	10.849134996838751
0.5361018036213486	10.957319593529208
0.5378888096334199	11.089209167138183
0.5396817723321979	11.22749550173933
0.5414807115733054	11.367985943648852
0.5432856472785497	11.547798826660468
0.545096599436145	11.690895730737585
0.5469135881009322	11.823076401866981
0.5487366333946019	12.058756869131223
0.5505657555059172	12.273234236971264
0.5524009746909371	12.483653843214055
0.5542423112732402	12.679642729712734
0.556089785644151	12.868220192479955
0.557943418262965	13.052191313589374
0.5598032296571749	13.216070586456867
0.5616692404226988	13.351647836951601
0.5635414712241079	13.465634301819605
0.5654199427948549	13.538603902384187
0.5673046759375044	13.466168226337789
0.569195691523963	13.378749173553343
0.5710930104957095	13.360427020098772
0.5729966538640286	13.226911142200413
0.5749066427102419	12.918567586203059
0.576822998185943	12.437473446115362
0.5787457415132294	11.851585677332668
0.5806748939849402	11.037550585816897
0.58261047696489	10.025448584995129
0.5845525118881064	8.650831718902275
0.5865010202610669	5.984093620283693
0.588456023661937	2.3644182662395563
0.5904175437408102	2.2554777477069146
0.5923856022199464	6.999586489042841
0.5943602208940129	12.630002736399023
0.5963414216303263	17.977394511178762
0.598329226369094	23.79200567632481
0.6003236571236578	30.429143396441738
0.6023247359807368	37.9955312766506
0.6043324851006725	46.653716532020894
0.6063469267176749	56.55786518086448
0.6083680831400672	67.86290857292569
0.610395976750534	80.81729829882495
0.6124306300063692	95.6063956634828
0.6144720654397238	112.80115616504666
0.6165203056578563	132.42496071295594
0.6185753733433824	155.0493487403097
0.6206372912545272	180.96009590866507
0.6227060822253756	210.60322622085795
0.6247817691661269	244.3576664006855
0.6268643750633474	281.85315645196766
0.6289539229802253	326.58987518517927
0.6310504360568261	379.80777526919246
0.6331539375103489	439.5213925964943
0.6352644506353834	512.2263151434091
0.6373819988041681	591.5086339197037
0.6395066054668487	679.8067442262068
0.6416382941517382	790.419669822028
0.6437770884655775	907.4233533225607
0.6459230120937961	1014.18797986435
0.6480760888007754	1172.9539000499706
0.6502363424301114	1392.366952587801
0.6524037969048785	1620.208210749821
0.6545784762278948	1866.7786961890333
0.6567604044819878	2149.1611223464824
0.6589496058302612	2492.2200688085068
0.6611461045163621	2871.623221387791
0.66334992486475	3315.988063636654
0.6655610912809659	3809.530586254436
0.6677796282519025	4360.004682260194
0.6700055603460756	4722.144117800763
0.6722389122138959	5365.691670238008
0.6744797085879423	6370.827704335072
0.6767279742832354	7105.70088614572
0.6789837341975129	7763.331925267994
0.6812470133115047	8287.637951588504
0.6835178366892097	8566.409538504116
0.6857962294781739	8496.623715740958
0.6880822169097679	8088.148746506218
0.6903758242994671	7397.954036626156
0.6926770770471321	6551.101958867762
0.6949860006372892	6120.3688740671605
0.6973026206394136	6043.036021833648
0.6996269627082117	5925.995099033089
0.7019590525839058	5839.623190210967
0.7042989160925188	6044.492346713626
0.7066465791461606	6308.983141907992
0.7090020677433145	6482.458997279549
0.7113654079691256	6649.380838509739
0.7137366259956894	6729.676157654914
0.7161157480823418	6389.823846570803
0.7185028005759496	6055.521219747474
0.7208978099112028	6073.952610350545
0.7233008026109069	6104.993348854173
0.7257118052862767	5834.914427382319
0.728130844637231	5783.16049017602
0.7305579474526884	5484.648503847323
0.7329931406108642	5188.689181390326
0.7354364510795671	5028.654909748136
0.7378879059164991	5121.20571825908
0.7403475322695541	5247.799882026494
0.7428153573771193	5242.177938780395
0.7452914085683765	5189.454159750178
0.7477757132636044	5139.635761067095
0.7502682989744831	4966.730011439336
0.7527691933043982	4808.683079010375
0.7552784239487462	4643.012585803009
0.7577960186952422	4474.5813757565475
0.7603220054242263	4213.232761983604
0.7628564121089738	3349.9269372258586
0.7653992668160038	1656.9759190700147
0.7679505977053904	905.6422406154297
0.7705104330310751	1441.2673128335489
0.7730788011411788	2996.890893908777
0.7756557304783162	4506.534908374374
0.7782412495799106	5528.768924423466
0.7808353870785104	6422.683716324378
0.7834381717021055	8063.239077084047
0.7860496322744459	9407.175001052254
0.7886697977153608	11048.97630136531
0.7912986970410787	12983.560055467637
0.793936359364549	13546.345408397208
0.7965828138957642	15659.153109182756
0.7992380899420836	19918.483808469824
0.8019022169085571	23508.473522588494
0.8045752242982523	27163.257203717603
0.80725714171258	30705.553942648432
0.809947998851622	33061.93779853064
0.8126478255144608	35124.472748837834
0.8153566515995091	36229.53183308311
0.8180745071048409	42562.470284454736
0.8208014221285237	55407.77271152761
0.8235374268689521	63062.93367202843
0.8262825516251822	73330.65130941056
0.8290368267972661	80584.67621684125
0.8318002828865904	88747.75974420168
0.8345729504962124	96764.02344302552
0.8373548603311998	107240.44839593204
0.8401460431989706	128202.04042284183
0.8429465300096338	142715.1617378775
0.8457563517763327	160850.2452027781
0.8485755396155872	180997.4601509005
0.8514041247476393	187691.46128273077
0.8542421384967981	214860.01421039083
0.8570896122917875	256719.93836547743
0.8599465776660935	287360.0276609778
0.8628130662583139	318490.4170187947
0.8656891098125085	351739.7934936797
0.8685747401785502	386582.9490948476
0.8714699893124788	423968.966169439
0.8743748892768537	466412.8352806039
0.8772894722411099	511514.80117904063
0.8802137704819137	554184.8103380555
0.8831478163835201	591956.7434761432
0.8860916424381319	605203.9453921793
0.8890452812462591	567936.4041876383
0.89200876551708	498745.95420140773
0.8949821280688037	512478.6978591501
0.8979654018290332	598647.6852473228
0.90095861983513	674390.2083347961
0.9039618152345804	870897.2190309818
0.9069750212853626	927417.7996765766
0.9099982713563137	988647.3047647105
0.9130315989275016	1131202.4793405922
0.9160750375905932	1231677.3731450087
0.9191286210492287	1380463.995638958
0.9221923831193928	1606423.141607889
0.9252663577297908	1518307.3349506292
0.9283505789222235	901876.6246823376
0.9314450808519644	618154.4294535463
0.9345498977881376	705523.0592341083
0.9376650641140981	875362.7245213949
0.940790614327812	1419141.0965537773
0.9439265830422381	1705071.3367027398
0.9470730049857122	1665904.6443630457
0.9502299150023314	1259080.431989034
0.9533973480523392	1247471.542361109
0.9565753392125138	1232004.0704988418
0.9597639236765556	1333233.5265698165
0.9629631367554774	1181941.9606899975
0.9661730138779958	1661294.8668526385
0.9693935905909224	2275683.481051912
0.972624902559559	2622909.4301265813
0.9758669855680909	2686591.548643199
0.9791198755199847	2959961.612528042
0.9823836084383848	3155739.0511980015
0.9856582204665127	3671441.912521281
0.9889437478680678	4385232.055869189
0.9922402270276282	4556343.92202432
0.9955476944510537	4650500.231930955
0.9988661867658906	4532178.644563474
1.002195740721777	4463270.318842095
1.0055363931908496	5686075.104275284
1.0088881811681525	6465451.374089763
1.0122511417720463	7107579.519312355
1.01562531224462	7192458.751458004
1.019010729952102	7395577.261199675
1.0224074323852759	7888213.390261363
1.0258154571598936	8923233.732084468
1.0292348420170931	9808345.529430903
1.0326656248238169	10071566.735020306
1.0361078435732296	10271576.86296972
1.0395615363851405	11135223.403039683
1.0430267415064245	12268955.575912781
1.0465034973114462	12842229.411364548
1.0499918423024843	13101631.313698772
1.0534918151101593	13873125.437710686
1.05700345449386	14740447.527035646
1.0605267993421728	15418105.02691132
1.0640618886733135	15855524.258499427
1.067608761635558	15977312.875280607
1.0711674575076766	16177302.726806158
1.0747380156993689	15990434.193608887
1.0783204757517002	15592619.011889938
1.0819148773375393	15705697.15478949
1.085521260261998	15188952.074395755
1.0891396644628712	13720060.551795878
1.092770130011081	11104535.604629088
1.0964126971111179	8350790.984813663
1.1000674061014886	6970593.6941467095
1.10373429745516	5493834.5959685
1.1074134117800107	2772248.2142930236
1.1111047898192774	1469061.0792911192
1.1148084724520084	1493539.8986237047
1.1185245006935154	1710207.8883823974
1.1222529156958272	2101212.90416991
1.1259937587481466	2182425.6642122483
1.1297470712773072	2202759.899386593
1.1335128948482316	1105754.6749990194
1.1372912711643925	1392372.658758889
1.1410822420682738	2188287.6559130126
1.1448858495418348	1768210.3969729696
1.1487021357069744	1187601.4377263708
1.1525311428259977	922130.9888344937
1.1563729133020846	496917.8517030405
1.1602274896797582	533453.5414821715
1.1640949146453576	983391.2719510512
1.1679752310275089	1521526.6767802476
1.1718684817976006	1165376.3610946857
1.1757747100702594	902935.5994779293
1.1796939591038271	1747531.1824564885
1.1836262723008397	2377083.8683095886
1.1875716932085094	3504798.616525929
1.1915302655192046	4046973.0236150515
1.1955020330709352	4845298.7125667315
1.1994870398478386	6959995.555890019
1.2034853299806647	8810517.75748183
1.207496947747267	9175988.837898288
1.2115219375730912	9709635.67436725
1.2155603440316685	11593477.644705424
1.2196122118451074	13656275.428642308
1.2236775858845912	15855911.881795092
1.2277565111708733	18582234.086167
1.2318490328747762	20447161.15789091
1.2359551963176922	22042820.648827232
1.2400750469720847	23976321.501769632
1.2442086304619917	26040151.37506524
1.248355992563532	28008102.465145607
1.2525171792054102	28848094.29381308
1.2566922364694284	31237642.29774324
1.2608812105909932	33126686.813078765
1.2650841479596302	32888126.662620768
1.2693010951194956	32556663.145007625
1.273532098769894	31833386.63087646
1.2777772057657937	29367240.679383446
1.2820364631183463	26306294.964598056
1.2863099179954076	21295156.82098801
1.2905976177220593	18934356.01317434
1.2948996097811327	17855908.065843035
1.2992159418137368	16712174.59285631
1.3035466616197826	14848250.059611052
1.3078918171585154	11802175.002902957
1.3122514565490437	8282747.144207044
1.3166256280708741	8432236.504205765
1.3210143801644436	8989565.554205647
1.3254177614316587	6918950.69775503
1.329835820636431	3805399.548885364
1.3342686067052192	1445197.1279689528
1.33871616872757	468430.06179680844
1.343178555956662	194867.09027667926
1.347655817809851	106517.9885877258
1.352148003869217	90393.25371490845
1.3566551638821147	40006.14359279968
1.3611773477617217	21279.75304958266
1.3657146055875944	25425.535747707745
1.3702669876062197	43638.690754275456
1.3748345442315741	86276.50806508267
1.3794173260456792	107985.88166175855
1.384015383799165	56373.17003523037
1.388628768411829	58833.597197219635
1.3932575309732018	104879.98256599999
1.3979017227431125	90431.60819217558
1.4025613951522564	117513.90607054219
1.407236599802764	130555.37608584049
1.4119273884687735	150807.09402534468
1.4166338130970026	102509.46863458076
1.4213559258073263	94679.6347546704
1.4260937788933508	131974.25192572674
1.4308474248229952	178629.4010080841
1.4356169162390722	234583.61424074176
1.4404023059598692	377116.42986791267
1.4452036469797356	443321.04936971166
1.450020992469668	539387.6049157368
1.4548543957779003	671119.5112909877
1.4597039104304934	699724.5462788111
1.4645695901319284	830085.9409517669
1.469451488765702	571811.3502582692
1.4743496603949209	395082.6382128399
1.479264159262904	419521.6001759869
1.4841950397937806	437153.48367581854
1.4891423565930935	487603.60532402503
1.4941061644484037	643791.9902186212
1.4990865183298985	1146815.4429691627
1.5040834733909982	1276969.975939668
1.5090970849689684	1540508.9909444246
1.5141274085855316	1383377.8647378592
1.5191744999474837	1625283.3554710604
1.5242384149473087	2366606.49179837
1.5293192096638	3234912.36616508
1.5344169403626793	3680972.2436860427
1.5395316634972218	4119006.6434936174
1.544663435708879	4618020.159700671
1.5498123138279087	5668397.65474541
1.554978354874002	7363520.950509235
1.5601616160569156	7579864.318249681
1.5653621547771055	8866100.386749016
1.5705800286263625	10702869.450985884
1.5758152953884506	11800452.838827545
1.5810680130397454	12532080.754903924
1.5863382397498782	12513594.576481633
1.5916260338823778	12327129.256337926
1.5969314539953192	10933290.987401951
1.6022545588419705	8305007.015827497
1.6075954073714436	5935805.763760736
1.6129540587293487	4073528.242418406
1.6183305722584467	2801713.2461714586
1.6237250074993084	1865344.2520071045
1.6291374241909726	1642557.4756639337
1.6345678822716092	1302620.638589938
1.6400164418791816	1199658.8462500058
1.6454831633521123	1724233.5521989185
1.6509681072299527	2085460.1430409888
1.6564713342540527	2136719.073049842
1.6619929053682332	2063614.4647655468
1.6675328817194608	1107931.6349321345
1.6730913246585257	602658.7167396521
1.6786682957407209	1116763.0490632735
1.6842638567265233	1380307.9361931249
1.6898780695822784	976942.8968248045
1.6955109964808863	621201.9800419569
1.7011626998024894	630344.746561855
1.7068332421351646	967755.24332681
1.7125226862756153	1126851.4611894477
1.7182310952298672	1253017.7160293038
1.7239585322139668	1196203.3832641877
1.7297050606546804	994523.3531786542
1.7354707441901962	931346.0328946189
1.7412556466708302	900351.863051904
1.747059832159733	1144561.9152027827
1.752883364933599	1398851.788484047
1.7587263094833776	1189754.1203466146
1.7645887305149892	935257.0427599532
1.7704706929500391	658411.618133408
1.7763722619265396	647430.3039872751
1.7822935027996283	637512.7352670592
1.7882344811422937	544295.9519630078
1.7941952627461015	332849.546309106
1.8001759136219222	299718.87076802325
1.8061765000006618	212291.17289079318
1.8121970883339975	264473.6684229899
1.818237745295111	396070.8090963143
1.8242985377794283	447837.4061373109
1.8303795329053596	212936.3453093816
1.8364807980150446	155670.5478495143
1.8426024006750947	231739.26677440992
1.8487444086773455	335632.913762064
1.8549068900396033	331746.10387828446
1.861089913006402	146545.66272952704
1.8672935460497566	98589.02292309207
1.873517857869923	167290.05405133092
1.879762917396156	365133.2849606214
1.8860287937874767	571820.1631350268
1.8923155564334353	771980.767715538
1.8986232749548801	712277.4084389486
1.9049520192047298	403582.1577167107
1.9113018592687456	392903.7600678971
1.9176728654663082	282794.4189419249
1.9240651083511964	248328.42857381326
1.9304786587123668	155464.61991075074
1.9369135875747419	82299.08794970615
1.9433699661999908	144280.83633587311
1.9498478660873244	173174.112042347
1.9563473589742824	186230.82187074455
1.9628685168375302	287375.33559576096
1.9694114118936552	411565.7160694266
1.9759761165999676	518361.94172763085
1.9825627036553009	658643.2083369736
1.9891712460008188	809762.2747227051
1.9958018168208218	885180.562957203
2.002454489543558	889101.9042157744
2.0091293378420367	936324.8001277822
2.0158264356348434	901142.6872817606
2.02254585708696	745045.3582084774
2.029287676610583	969543.466648625
2.036051968865952	1211943.578659871
2.042838808762172	1376727.729077881
2.049648271458046	1479781.462887859
2.0564804323629065	1686842.7541154074
2.0633353671374497	1986981.9322141432
2.0702131516945745	2320125.054593992
2.0771138622002234	2222821.2889952287
2.084037575074224	2190745.41347906
2.0909843669911385	2208157.407053628
2.097954314881109	2192331.9089286886
2.1049474959307126	2256842.203503547
2.1119639875838154	2265860.863273454
2.1190038675424283	2145479.728818938
2.12606721376757	2035535.2188179696
2.1331541044801288	1908015.1628166197
2.140264618161729	1779016.7708222016
2.147398833555602	1627287.9193479633
2.154556829667454	1348485.073859852
2.1617386857663456	1182762.283083473
2.1689444813855667	1037626.203342852
2.176174296323519	874265.2362805741
2.1834282106445975	737970.5064594622
2.19070630468008	438652.2648886675
2.1980086590290138	162483.55795220824
2.2053353545591103	137910.30908197525
2.2126864724076407	277898.08881358226
2.220062093982333	242883.92321493465
2.2274623009622747	174064.10810599264
2.2348871752988155	142065.07865458084
2.2423367992164787	111521.72510064126
2.2498112552138667	84706.33039147337
2.25731062606458	83435.95320648586
2.2648349948181288	57582.88992339097
2.272384444800856	50797.92570880312
2.2799590596168593	67041.69336729795
2.2875589231489153	82678.2791572702
2.295184119559412	76072.53863300389
2.302834733291277	135405.97558731108
2.3105108490689146	225507.3752872454
2.3182125518991445	115092.06596351774
2.325939927072142	58199.30637894055
2.3336930601623824	59356.54474656236
2.341472037029591	34150.77488703562
2.3492769438196897	52462.462423928126
2.3571078669657557	113162.77888348978
2.364964893188975	142769.28144401967
2.372848109499605	89474.72035466309
