#wavelength (micron)	surface_flux (erg / (cm2 micron s))
0.40133895199999997	0.006645325511331848
0.40267674850666674	0.007637212169893732
0.40401900433502225	0.0028449365034836967
0.4053657343494724	0.003188232323659727
0.4067169534639707	0.011812057389281238
0.40807267664218394	0.03415224999106811
0.4094329188976579	0.0769215227419241
0.41079769529398347	0.14481512643194377
0.41216702094496344	0.24072393821155041
0.41354091101477997	0.3669590444882434
0.4149193807181627	0.522747296562721
0.41630244532055655	0.7029752595238498
0.41769012013829176	0.8830804268608009
0.41908242053875283	0.9915797674816552
0.4204793619405487	1.0903139091108114
0.42188095981368384	1.4498941510684447
0.42328722967972954	2.043219049324259
0.4246981871119953	2.6870031569406367
0.42611384773570193	3.3399952828840798
0.4275342272281543	4.0422519194916715
0.4289593413189149	4.816094528865785
0.43038920578997797	5.678095849615153
0.4318238364759446	6.643550009539833
0.43326324926419774	7.72373702024373
0.4347074600950785	8.930039281764135
0.4361564849620621	10.27409000750477
0.43761033991193565	11.7675021855721
0.4390690410449755	13.418252321918175
0.44053260451512544	15.248381124057643
0.4420010465301759	17.233442129597915
0.44347438335194317	19.478056284921163
0.4449526312964497	22.039925408709685
0.44643580673410455	24.833660278779185
0.44792392608988496	27.93779941756194
0.4494170058435179	31.385077632480655
0.450915062529663	35.172967027235124
0.4524181127380953	39.249911635891685
0.45392617311388894	43.721898019479575
0.45543926035760196	48.86269213467612
0.45695739122546064	50.68207218936788
0.4584805825295456	50.2524915768313
0.46000885113797746	52.6389086603842
0.46154221397510403	55.0257294568955
0.4630806880216877	56.70850638693582
0.4646242903150934	57.57684295991494
0.4661730379494771	57.7778505788011
0.4677269480759754	57.233719789776174
0.4692860379028953	55.45560992830129
0.47085032469590504	52.47521371055794
0.4724198257782247	48.53755509238484
0.47399455853081884	44.076034630430826
0.4755745403925883	39.69135785315143
0.4771597888605636	35.840522291173116
0.47875032149009894	32.69546959603274
0.4803461558950659	29.602224081891208
0.48194730974804956	26.43645696210237
0.48355380078054305	23.498224156868687
0.4851656467831449	21.069802763135055
0.48678286560575545	19.303494310668608
0.4884054751577746	17.982663173471856
0.4900334934083006	16.936945770293136
0.4916669383863283	15.966243531565532
0.4933058281809494	14.95927722413731
0.4949501809415526	13.90673261607451
0.4966000148780246	12.752578871638747
0.4982553482609513	11.39849051354128
0.4999161994218212	9.978350268426178
0.5015825867532273	8.623864598741141
0.5032545287090715	7.514174468162082
0.5049320438047684	7.047032537709383
0.506615150617451	7.014458976294012
0.5083038677861758	7.013496967329615
0.5099982140121297	7.061260507049364
0.5116982080588369	7.096184926604521
0.5134038687523664	7.14937390054879
0.515115214981541	7.262386037708869
0.5168322656981462	7.422506652539917
0.5185550399171401	7.600640432971532
0.5202835567168639	7.756377557342445
0.5220178352392535	7.877669625680006
0.5237578946900511	7.959417047979492
0.525503754339018	8.058565285780627
0.527255433520148	8.15222294780768
0.5290129516318819	8.23136127821376
0.5307763281373216	8.31036278875315
0.532545582564446	8.409849642247115
0.5343207345063276	8.51437282327211
0.5361018036213486	8.59202777165141
0.5378888096334199	8.6437550160778
0.5396817723321979	8.632603850916299
0.5414807115733054	8.643605666856658
0.5432856472785497	8.814405478358017
0.545096599436145	8.943689877002416
0.5469135881009322	9.033566116217514
0.5487366333946019	9.213827039980234
0.5505657555059172	9.379870466164661
0.5524009746909371	9.554946522698643
0.5542423112732402	9.717488390766249
0.556089785644151	9.849620886171387
0.557943418262965	9.958237594999861
0.5598032296571749	10.032369348690603
0.5616692404226988	10.075494652854255
0.5635414712241079	10.102564400251055
0.5654199427948549	10.067540633580515
0.5673046759375044	9.791572084996877
0.569195691523963	9.53576953550884
0.5710930104957095	9.613815320997869
0.5729966538640286	9.48425130753566
0.5749066427102419	9.2347967303981
0.576822998185943	8.922488125831858
0.5787457415132294	8.539367695593352
0.5806748939849402	8.004116328321535
0.58261047696489	7.328633484811009
0.5845525118881064	6.39823937368647
0.5865010202610669	4.501617128249861
0.588456023661937	1.793634688822029
0.5904175437408102	1.711882899343074
0.5923856022199464	5.185259989721918
0.5943602208940129	8.810559264542025
0.5963414216303263	12.12138949613352
0.598329226369094	15.89946547591319
0.6003236571236578	20.528497945562968
0.6023247359807368	26.27477358917402
0.6043324851006725	33.329157378940614
0.6063469267176749	41.789062256491086
0.6083680831400672	51.4384013735522
0.610395976750534	62.62513400751825
0.6124306300063692	75.63144190011192
0.6144720654397238	90.63438053180757
0.6165203056578563	107.66692509063873
0.6185753733433824	127.16427376804562
0.6206372912545272	149.16530853602126
0.6227060822253756	173.37531165494744
0.6247817691661269	197.94049726371247
0.6268643750633474	223.87434763268575
0.6289539229802253	261.5788121926833
0.6310504360568261	305.28982364499575
0.6331539375103489	349.0233147547983
0.6352644506353834	404.2636238304419
0.6373819988041681	461.6247490199839
0.6395066054668487	525.1390430496948
0.6416382941517382	598.4465416635874
0.6437770884655775	663.0746628618632
0.6459230120937961	703.2689113188499
0.6480760888007754	786.2191482176454
0.6502363424301114	926.5773686670218
0.6524037969048785	1051.275010930296
0.6545784762278948	1197.0739227550584
0.6567604044819878	1334.2184049774696
0.6589496058302612	1519.337806245304
0.6611461045163621	1745.1891696430112
0.66334992486475	1992.966771143718
0.6655610912809659	2255.40822282535
0.6677796282519025	2518.5746800939496
0.6700055603460756	2738.0482683059304
0.6722389122138959	3037.850936159086
0.6744797085879423	3440.324359316674
0.6767279742832354	3770.9872628429657
0.6789837341975129	4003.1689808238516
0.6812470133115047	4109.523027503263
0.6835178366892097	4066.198237964589
0.6857962294781739	3868.3755205673124
0.6880822169097679	3515.8147866886898
0.6903758242994671	2933.113589305333
0.6926770770471321	2224.637229861714
0.6949860006372892	2030.8262336539701
0.6973026206394136	2118.0028074389843
0.6996269627082117	2001.6673767564532
0.7019590525839058	1857.0356622071329
0.7042989160925188	1865.7532843809338
0.7066465791461606	1938.0708689150113
0.7090020677433145	2000.779389747244
0.7113654079691256	2010.5999385526184
0.7137366259956894	1894.4182559863268
0.7161157480823418	1314.718732523027
0.7185028005759496	899.086378280908
0.7208978099112028	1171.1338473688356
0.7233008026109069	1271.5982743599482
0.7257118052862767	1095.8143484019852
0.728130844637231	1128.7241019520427
0.7305579474526884	1103.383771435085
0.7329931406108642	1198.5873054816457
0.7354364510795671	1304.3814675773594
0.7378879059164991	1439.5173502098253
0.7403475322695541	1598.0049975498
0.7428153573771193	1758.996319133364
0.7452914085683765	1887.6127833833493
0.7477757132636044	2018.2291362393205
0.7502682989744831	2114.6617648702136
0.7527691933043982	2171.0953960904944
0.7552784239487462	2203.3513883723126
0.7577960186952422	2202.9644783241765
0.7603220054242263	2168.6095514074623
0.7628564121089738	1891.1337791911278
0.7653992668160038	1224.7410928026088
0.7679505977053904	950.7044988061688
0.7705104330310751	1215.3086558892733
0.7730788011411788	1848.7983743500213
0.7756557304783162	2483.183703676349
0.7782412495799106	2937.67306797441
0.7808353870785104	3272.9847990133862
0.7834381717021055	3717.806450241633
0.7860496322744459	4008.757549884594
0.7886697977153608	4433.933715922908
0.7912986970410787	5193.792348772078
0.793936359364549	5630.691360890729
0.7965828138957642	6036.114740077498
0.7992380899420836	7088.819800925841
0.8019022169085571	8151.011403261549
0.8045752242982523	9085.385034103841
0.80725714171258	9266.329661003694
0.809947998851622	7897.89859759965
0.8126478255144608	6046.5079915287315
0.8153566515995091	5247.137640027138
0.8180745071048409	7673.717561596435
0.8208014221285237	10589.835634671723
0.8235374268689521	10617.671475564217
0.8262825516251822	13806.869909566758
0.8290368267972661	14753.4470883978
0.8318002828865904	14991.143818908628
0.8345729504962124	15966.645881754719
0.8373548603311998	18369.03975427786
0.8401460431989706	23292.955625988634
0.8429465300096338	27903.798757367662
0.8457563517763327	33167.499682143825
0.8485755396155872	38299.16659452152
0.8514041247476393	42696.93665854091
0.8542421384967981	48274.45057283317
0.8570896122917875	55069.544133195246
0.8599465776660935	61292.92586460482
0.8628130662583139	66681.72083465343
0.8656891098125085	71078.75518307943
0.8685747401785502	73662.55659842519
0.8714699893124788	75910.20484278252
0.8743748892768537	78982.87612329624
0.8772894722411099	81059.64394875702
0.8802137704819137	79899.29850678793
0.8831478163835201	75040.88886298476
0.8860916424381319	57175.40662608439
0.8890452812462591	28722.958158350324
0.89200876551708	11365.044671634567
0.8949821280688037	9503.411906625306
0.8979654018290332	8314.505311575966
0.90095861983513	11785.475571958692
0.9039618152345804	28474.6574190688
0.9069750212853626	32169.455899304303
0.9099982713563137	29894.527383208864
0.9130315989275016	35469.494537521234
0.9160750375905932	39573.37351274536
0.9191286210492287	49841.99538930362
0.9221923831193928	60210.097688170026
0.9252663577297908	37990.75685289729
0.9283505789222235	8560.480721455528
0.9314450808519644	246.22276096290435
0.9345498977881376	205.95915356075693
0.9376650641140981	2263.2120484192833
0.940790614327812	5684.402343184703
0.9439265830422381	3004.1878590674287
0.9470730049857122	1030.5010405175353
0.9502299150023314	1206.785848229146
0.9533973480523392	1677.4339342122612
0.9565753392125138	1578.2486011420874
0.9597639236765556	2011.662914264858
0.9629631367554774	3156.64876068049
0.9661730138779958	8973.964672126616
0.9693935905909224	20340.210651121564
0.972624902559559	28802.80781863365
0.9758669855680909	29984.03143927362
0.9791198755199847	38544.084925478914
0.9823836084383848	48331.51041546505
0.9856582204665127	62379.662032141525
0.9889437478680678	83987.3813395274
0.9922402270276282	99681.98858087766
0.9955476944510537	108388.01460444806
0.9988661867658906	97146.07876680973
1.002195740721777	57926.68377085751
1.0055363931908496	47995.28157372032
1.0088881811681525	41424.58545972099
1.0122511417720463	35853.85738603195
1.01562531224462	24756.552323012485
1.019010729952102	15823.611361717883
1.0224074323852759	13216.212533043676
1.0258154571598936	15272.982312507178
1.0292348420170931	17281.904158043584
1.0326656248238169	13274.26987399284
1.0361078435732296	10744.562239566234
1.0395615363851405	13465.018409616785
1.0430267415064245	16283.661167946968
1.0465034973114462	17589.330955383357
1.0499918423024843	17843.10082334542
1.0534918151101593	18843.120761797247
1.05700345449386	19340.027522947665
1.0605267993421728	18421.4195619199
1.0640618886733135	16773.454792041834
1.067608761635558	14701.608623354292
1.0711674575076766	12731.954343237145
1.0747380156993689	11137.704907475656
1.0783204757517002	9780.122237221967
1.0819148773375393	8585.932689921981
1.085521260261998	7542.0687897847065
1.0891396644628712	6606.874573121786
1.092770130011081	5476.33564171866
1.0964126971111179	4149.3911590090875
1.1000674061014886	2941.857867534959
1.10373429745516	1750.0454240971933
1.1074134117800107	796.9550962686734
1.1111047898192774	276.84054373411385
1.1148084724520084	102.56320246842344
1.1185245006935154	48.94082929615517
1.1222529156958272	43.18185616470806
1.1259937587481466	54.894854636581194
1.1297470712773072	102.56635323942467
1.1335128948482316	90.60607128085132
1.1372912711643925	180.5918783394081
1.1410822420682738	352.0277035058387
1.1448858495418348	200.06425588051667
1.1487021357069744	78.21860115618513
1.1525311428259977	62.23653954204746
1.1563729133020846	26.93436402772938
1.1602274896797582	26.32416473294979
1.1640949146453576	85.62043991786189
1.1679752310275089	210.1240597559015
1.1718684817976006	144.9675535090561
1.1757747100702594	179.45652893023302
1.1796939591038271	431.68148596676645
1.1836262723008397	520.9327145205157
1.1875716932085094	607.733302611784
1.1915302655192046	761.747009539262
1.1955020330709352	929.556805079168
1.1994870398478386	1146.81590025821
1.2034853299806647	1367.387713496737
1.207496947747267	1458.2796194397351
1.2115219375730912	1597.3885544566904
1.2155603440316685	1954.1302162435513
1.2196122118451074	2360.99853848732
1.2236775858845912	2988.665898496048
1.2277565111708733	4249.4331710746665
1.2318490328747762	5323.180967010271
1.2359551963176922	6745.166423531657
1.2400750469720847	9061.1439308146
1.2442086304619917	12109.060800942192
1.248355992563532	14946.395687046825
1.2525171792054102	16145.041964304099
1.2566922364694284	18753.18504239402
1.2608812105909932	24689.191713695753
1.2650841479596302	31802.22528367307
1.2693010951194956	37114.50948636178
1.273532098769894	36045.40070220864
1.2777772057657937	31774.651298567795
1.2820364631183463	26446.859552761245
1.2863099179954076	20170.65386746295
1.2905976177220593	15999.757057443161
1.2948996097811327	14616.72788955306
1.2992159418137368	13655.857246025273
1.3035466616197826	11539.447564106507
1.3078918171585154	10315.349953694355
1.3122514565490437	8132.727448636482
1.3166256280708741	6407.258975737436
1.3210143801644436	6325.693551423353
1.3254177614316587	6231.825280463109
1.329835820636431	3383.540534844383
1.3342686067052192	1084.4032997809497
1.33871616872757	390.7759099486525
1.343178555956662	41.099248464333705
1.347655817809851	4.169418982953699
1.352148003869217	1.3388417323191837
1.3566551638821147	0.14120125689649424
1.3611773477617217	0.025203741574133506
1.3657146055875944	0.03370981698211597
1.3702669876062197	0.06116525439140783
1.3748345442315741	0.4414611923453334
1.3794173260456792	0.5955330092936034
1.384015383799165	0.14432428856165463
1.388628768411829	0.5783798618272294
1.3932575309732018	0.9438703354199021
1.3979017227431125	1.4714439871211809
1.4025613951522564	2.4996468236187495
1.407236599802764	2.1605358321328403
1.4119273884687735	3.3692260861678416
1.4166338130970026	3.473249191467764
1.4213559258073263	4.8964742670286165
1.4260937788933508	8.931147430399914
1.4308474248229952	17.50407218954556
1.4356169162390722	29.010193921924383
1.4404023059598692	46.43690642418393
1.4452036469797356	97.14455818381269
1.450020992469668	277.4280597099819
1.4548543957779003	624.3008944087576
1.4597039104304934	875.9228601274215
1.4645695901319284	480.2034684449571
1.469451488765702	160.6430782336668
1.4743496603949209	66.23800750762733
1.479264159262904	59.12812099686548
1.4841950397937806	45.36515986937845
1.4891423565930935	36.08473620320979
1.4941061644484037	40.58249317195012
1.4990865183298985	65.54977212579931
1.5040834733909982	118.51977195619116
1.5090970849689684	110.74956189280842
1.5141274085855316	33.47428360279502
1.5191744999474837	89.78728972993984
1.5242384149473087	220.3000911304592
1.5293192096638	446.23727250646584
1.5344169403626793	571.7232696510404
1.5395316634972218	738.2154581771726
1.544663435708879	1336.6344271856078
1.5498123138279087	2559.7467337664257
1.554978354874002	5004.891151861238
1.5601616160569156	9187.52539941023
1.5653621547771055	16447.687670567513
1.5705800286263625	26269.457818626033
1.5758152953884506	34140.572472267384
1.5810680130397454	41331.479657741045
1.5863382397498782	46643.37516097269
1.5916260338823778	50317.438463405924
1.5969314539953192	49671.214908909555
1.6022545588419705	42491.11070758836
1.6075954073714436	30880.263211802925
1.6129540587293487	18590.66312059624
1.6183305722584467	8732.32510923235
1.6237250074993084	3252.9912560845532
1.6291374241909726	1271.5866290396914
1.6345678822716092	704.9845132326316
1.6400164418791816	530.8684826637337
1.6454831633521123	558.8731366962891
1.6509681072299527	601.251503520276
1.6564713342540527	1191.8012634200843
1.6619929053682332	1903.5090348500544
1.6675328817194608	806.9795743088478
1.6730913246585257	647.335567754325
1.6786682957407209	1156.0118575743963
1.6842638567265233	1134.5219572293558
1.6898780695822784	648.9004238379365
1.6955109964808863	350.7153871139418
1.7011626998024894	237.62146003368707
1.7068332421351646	509.40550848870487
1.7125226862756153	786.8804805090031
1.7182310952298672	1106.0880352644551
1.7239585322139668	889.6994630334651
1.7297050606546804	468.10676494937206
1.7354707441901962	500.7622916871568
1.7412556466708302	779.1048260569638
1.747059832159733	1190.3020022729668
1.752883364933599	1459.77578551811
1.7587263094833776	1239.0661719850546
1.7645887305149892	944.359053017788
1.7704706929500391	695.4759099190942
1.7763722619265396	564.144255645587
1.7822935027996283	474.5814918942221
1.7882344811422937	235.23581901283094
1.7941952627461015	103.45550440678335
1.8001759136219222	88.90930389388832
1.8061765000006618	41.26807282719065
1.8121970883339975	33.1948442491736
1.818237745295111	24.2920400399795
1.8242985377794283	32.494806041537124
1.8303795329053596	13.85271997397304
1.8364807980150446	4.269290472091057
1.8426024006750947	9.783845631950976
1.8487444086773455	14.04115153590103
1.8549068900396033	10.068358794525206
1.861089913006402	7.346187964053969
1.8672935460497566	4.110349051749552
1.873517857869923	1.849582331813377
1.879762917396156	14.779327562099061
1.8860287937874767	34.799660481237055
1.8923155564334353	43.16094055177851
1.8986232749548801	32.775234129759696
1.9049520192047298	10.407724954730353
1.9113018592687456	10.032093631570559
1.9176728654663082	10.59685901435782
1.9240651083511964	12.883042903917545
1.9304786587123668	6.115341617611453
1.9369135875747419	2.41137544834403
1.9433699661999908	1.7816768960901184
1.9498478660873244	3.0107745278679015
1.9563473589742824	8.8230315572101
1.9628685168375302	22.59736274889126
1.9694114118936552	33.3352712456903
1.9759761165999676	33.712886381966705
1.9825627036553009	36.685715727372994
1.9891712460008188	52.04709419793494
1.9958018168208218	64.61038557422653
2.002454489543558	65.43316304988247
2.0091293378420367	57.23568936783805
2.0158264356348434	57.04161381332754
2.02254585708696	62.45284097827274
2.029287676610583	100.32033127056488
2.036051968865952	118.03727338720903
2.042838808762172	128.58878046828283
2.049648271458046	144.84628394149908
2.0564804323629065	151.05846180600082
2.0633353671374497	147.97379633648183
2.0702131516945745	141.19835489118051
2.0771138622002234	128.58895495545124
2.084037575074224	116.98522474796076
2.0909843669911385	107.06674657254253
2.097954314881109	97.91153985501724
2.1049474959307126	92.98287458013544
2.1119639875838154	92.49380500936925
2.1190038675424283	94.13467651773169
2.12606721376757	98.53466391711873
2.1331541044801288	102.27421103504723
2.140264618161729	108.65248915786539
2.147398833555602	113.5251068217041
2.154556829667454	106.4566978939979
2.1617386857663456	96.94223454068319
2.1689444813855667	88.19386823734206
2.176174296323519	83.20596243487702
2.1834282106445975	76.45453183669419
2.19070630468008	51.12935148040179
2.1980086590290138	17.522664114115326
2.2053353545591103	7.265274688264911
2.2126864724076407	12.034819194146507
2.220062093982333	7.033934028508684
2.2274623009622747	5.7696856769406235
2.2348871752988155	5.10530738200379
2.2423367992164787	3.7437580102688175
2.2498112552138667	2.1768334700485648
2.25731062606458	1.7605164065564025
2.2648349948181288	0.5288001137336009
2.272384444800856	0.6400345625240651
2.2799590596168593	1.4321959670076247
2.2875589231489153	1.113874290710063
2.295184119559412	0.7934547351875093
2.302834733291277	1.6680140684332476
2.3105108490689146	5.246860369021335
2.3182125518991445	3.536074472311491
2.325939927072142	1.4605173194934817
2.3336930601623824	1.130225826265066
2.341472037029591	1.5854000887154278
2.3492769438196897	1.1240675237995013
2.3571078669657557	3.193383017376513
2.364964893188975	5.8907065103610865
2.372848109499605	2.933007234935209
