#wavelength (micron)	surface_flux (erg / (cm2 micron s))
0.40133895199999997	0.001219383162013999
0.40267674850666674	0.0014516260040337728
0.40401900433502225	0.0005683330851653124
0.4053657343494724	0.0006561788731646943
0.4067169534639707	0.0023924560307080176
0.40807267664218394	0.00663002831506202
0.4094329188976579	0.014621066001325985
0.41079769529398347	0.027322205594155168
0.41216702094496344	0.045295301998867096
0.41354091101477997	0.06924436697107143
0.4149193807181627	0.09862324936231254
0.41630244532055655	0.13268913514819491
0.41769012013829176	0.16701900414479204
0.41908242053875283	0.17785126789420444
0.4204793619405487	0.1775752598877394
0.42188095981368384	0.2538734679848962
0.42328722967972954	0.39211890305398855
0.4246981871119953	0.5282877049720983
0.42611384773570193	0.6579633170676552
0.4275342272281543	0.7983401700883508
0.4289593413189149	0.9523489900238616
0.43038920578997797	1.1233981064922474
0.4318238364759446	1.3156514989415948
0.43326324926419774	1.5306151564115797
0.4347074600950785	1.7696544309591524
0.4361564849620621	2.0340743116345807
0.43761033991193565	2.3248934748549837
0.4390690410449755	2.6405167927492093
0.44053260451512544	2.989244950469451
0.4420010465301759	3.3526983682867786
0.44347438335194317	3.7796110938453147
0.4449526312964497	4.2915385854910735
0.44643580673410455	4.837477659463193
0.44792392608988496	5.449974758215644
0.4494170058435179	6.143325053059184
0.450915062529663	6.914935549792533
0.4524181127380953	7.744916972000707
0.45392617311388894	8.600641268716311
0.45543926035760196	9.453735108434552
0.45695739122546064	9.944756460136345
0.4584805825295456	10.04916567498044
0.46000885113797746	10.591058509412454
0.46154221397510403	11.1936644573763
0.4630806880216877	11.672584871096664
0.4646242903150934	12.02277208205676
0.4661730379494771	12.234916397153393
0.4677269480759754	12.326386440870762
0.4692860379028953	12.217902372107503
0.47085032469590504	11.9360167367623
0.4724198257782247	11.47178295909652
0.47399455853081884	10.83500980411429
0.4755745403925883	10.145411252787646
0.4771597888605636	9.486432675045291
0.47875032149009894	8.926956813761391
0.4803461558950659	8.296351073697226
0.48194730974804956	7.5615041884475405
0.48355380078054305	6.780356301589455
0.4851656467831449	6.046106311457903
0.48678286560575545	5.512133959978701
0.4884054751577746	5.098691092528005
0.4900334934083006	4.7498593640000175
0.4916669383863283	4.430493374154335
0.4933058281809494	4.110732718190822
0.4949501809415526	3.790538556335285
0.4966000148780246	3.4398229843985955
0.4982553482609513	2.999726996700845
0.4999161994218212	2.549528075297317
0.5015825867532273	2.104667648863682
0.5032545287090715	1.7133009875072678
0.5049320438047684	1.5818702047009439
0.506615150617451	1.6041933234893462
0.5083038677861758	1.5966424282567266
0.5099982140121297	1.6185609941253152
0.5116982080588369	1.6522527795685014
0.5134038687523664	1.6984377995338036
0.515115214981541	1.759782847466491
0.5168322656981462	1.8281234310411487
0.5185550399171401	1.9025273925076223
0.5202835567168639	1.966273082870716
0.5220178352392535	2.013353333633544
0.5237578946900511	2.041882094631028
0.525503754339018	2.083149193565737
0.527255433520148	2.123722830220887
0.5290129516318819	2.1577240191533034
0.5307763281373216	2.192125039814246
0.532545582564446	2.2365206216781304
0.5343207345063276	2.2837285910171152
0.5361018036213486	2.3192282091916194
0.5378888096334199	2.3443856285217075
0.5396817723321979	2.343732676844863
0.5414807115733054	2.35431123402316
0.5432856472785497	2.4398463110031314
0.545096599436145	2.5075999500640305
0.5469135881009322	2.5573921252708107
0.5487366333946019	2.6580739887271254
0.5505657555059172	2.756462714201385
0.5524009746909371	2.858402927199651
0.5542423112732402	2.957360439650497
0.556089785644151	3.0480535482456146
0.557943418262965	3.132017586353605
0.5598032296571749	3.204350755660988
0.5616692404226988	3.2659288815870227
0.5635414712241079	3.3240541898529337
0.5654199427948549	3.3553529866022873
0.5673046759375044	3.26908782515699
0.569195691523963	3.191454827718133
0.5710930104957095	3.2906904373080232
0.5729966538640286	3.3003664439468037
0.5749066427102419	3.259031420377929
0.576822998185943	3.1988753617888293
0.5787457415132294	3.125511524692773
0.5806748939849402	2.9855247670170035
0.58261047696489	2.7735552731685
0.5845525118881064	2.4354473086376363
0.5865010202610669	1.6798018857360477
0.588456023661937	0.6294931274236542
0.5904175437408102	0.584914843406276
0.5923856022199464	1.8773130500785578
0.5943602208940129	3.2344789170414034
0.5963414216303263	4.450187513521357
0.598329226369094	5.763440820268563
0.6003236571236578	7.387427393492779
0.6023247359807368	9.449955327018346
0.6043324851006725	12.043383347114053
0.6063469267176749	15.196280763712402
0.6083680831400672	18.681218355893986
0.610395976750534	22.641644327073934
0.6124306300063692	27.16332382220162
0.6144720654397238	32.30120892949682
0.6165203056578563	38.03192561780299
0.6185753733433824	44.58230105395532
0.6206372912545272	51.94638244293288
0.6227060822253756	59.92855511026154
0.6247817691661269	67.36747762971201
0.6268643750633474	74.42893064714183
0.6289539229802253	87.21124225222522
0.6310504360568261	102.43051628796438
0.6331539375103489	116.02003248886561
0.6352644506353834	135.25940625700756
0.6373819988041681	153.27503805046737
0.6395066054668487	172.6386055048435
0.6416382941517382	195.91227959219896
0.6437770884655775	210.59926169877653
0.6459230120937961	206.02935193610153
0.6480760888007754	225.90981682956132
0.6502363424301114	279.95460797379025
0.6524037969048785	320.4593831666395
0.6545784762278948	370.2786533176354
0.6567604044819878	409.3696362632596
0.6589496058302612	477.8123473993688
0.6611461045163621	570.0030503173739
0.66334992486475	675.6569927681278
0.6655610912809659	788.8547526173045
0.6677796282519025	907.1790518792877
0.6700055603460756	997.9117906619066
0.6722389122138959	1131.5945343158926
0.6744797085879423	1319.1616268546843
0.6767279742832354	1458.383253953804
0.6789837341975129	1543.6693295924013
0.6812470133115047	1567.7309695774973
0.6835178366892097	1527.8824368125026
0.6857962294781739	1424.6874048221068
0.6880822169097679	1253.756751607261
0.6903758242994671	960.3104970568198
0.6926770770471321	605.8379316282485
0.6949860006372892	552.8381963597384
0.6973026206394136	655.5307061398157
0.6996269627082117	617.0009533292235
0.7019590525839058	541.7972654050523
0.7042989160925188	551.0535650903753
0.7066465791461606	588.2572102737399
0.7090020677433145	616.8180728388159
0.7113654079691256	614.2587921369956
0.7137366259956894	557.5388699520657
0.7161157480823418	315.543789651523
0.7185028005759496	144.87974507704232
0.7208978099112028	231.31752053192014
0.7233008026109069	274.9162026876626
0.7257118052862767	216.02266154398907
0.728130844637231	239.83312885697947
0.7305579474526884	239.6372448617204
0.7329931406108642	289.29212542753544
0.7354364510795671	346.38873086953583
0.7378879059164991	429.1646079029947
0.7403475322695541	535.9726779923208
0.7428153573771193	653.9643679074587
0.7452914085683765	754.9950576423093
0.7477757132636044	868.182733850885
0.7502682989744831	962.4834982647786
0.7527691933043982	1030.456819229111
0.7552784239487462	1086.3091057123495
0.7577960186952422	1117.4755031485658
0.7603220054242263	1124.144232066272
0.7628564121089738	1021.5358166231672
0.7653992668160038	712.1880780499604
0.7679505977053904	581.5190608672076
0.7705104330310751	743.093726070991
0.7730788011411788	1071.0289324701764
0.7756557304783162	1365.2740835925792
0.7782412495799106	1557.006729807774
0.7808353870785104	1672.568577800944
0.7834381717021055	1815.8900418134901
0.7860496322744459	1805.2308658404736
0.7886697977153608	1897.7991496705574
0.7912986970410787	2294.291348185582
0.793936359364549	2527.681099962898
0.7965828138957642	2549.9677574862308
0.7992380899420836	2814.748118032266
0.8019022169085571	3130.215968380766
0.8045752242982523	3388.2193278086115
0.80725714171258	3197.258633732688
0.809947998851622	2181.335296687839
0.8126478255144608	1166.3656444077121
0.8153566515995091	761.1187490558931
0.8180745071048409	1428.024737177581
0.8208014221285237	2355.207217044358
0.8235374268689521	2276.144641326533
0.8262825516251822	3041.5647891986982
0.8290368267972661	2977.0167570537083
0.8318002828865904	2754.452237506934
0.8345729504962124	2829.459768333242
0.8373548603311998	3428.9670783911465
0.8401460431989706	5040.971926817606
0.8429465300096338	6462.137511086091
0.8457563517763327	8243.653846534478
0.8485755396155872	10024.424745846854
0.8514041247476393	11488.154115870653
0.8542421384967981	13332.040446241444
0.8570896122917875	15547.276758451317
0.8599465776660935	17519.443093239963
0.8628130662583139	19023.002105541134
0.8656891098125085	19908.13887489137
0.8685747401785502	19732.01740900397
0.8714699893124788	19370.706567443038
0.8743748892768537	19447.448631077357
0.8772894722411099	19131.639773892293
0.8802137704819137	17515.088377529755
0.8831478163835201	15019.227618863335
0.8860916424381319	9359.607194071328
0.8890452812462591	2888.913823738738
0.89200876551708	462.3606583653676
0.8949821280688037	266.7023034009337
0.8979654018290332	240.72039859868002
0.90095861983513	508.42073014441195
0.9039618152345804	1676.4895419365234
0.9069750212853626	1761.3212255139886
0.9099982713563137	1530.20865002435
0.9130315989275016	2352.1181002363865
0.9160750375905932	2887.503548708532
0.9191286210492287	4537.745548686652
0.9221923831193928	6609.604504763743
0.9252663577297908	3741.0403703612246
0.9283505789222235	648.9322116078517
0.9314450808519644	10.755485780009248
0.9345498977881376	2.7498385989937897
0.9376650641140981	58.752761725280024
0.940790614327812	158.09002245667392
0.9439265830422381	76.4190009359604
0.9470730049857122	23.182088586480134
0.9502299150023314	26.673105433497604
0.9533973480523392	34.526116172668864
0.9565753392125138	38.949799605139766
0.9597639236765556	52.83815084738242
0.9629631367554774	97.15315041379948
0.9661730138779958	511.0305820857932
0.9693935905909224	1408.1428141069032
0.972624902559559	1901.0669600017554
0.9758669855680909	1646.4218321856358
0.9791198755199847	2209.376256618981
0.9823836084383848	2799.133713836699
0.9856582204665127	3920.581346215527
0.9889437478680678	5906.343016948098
0.9922402270276282	7350.714342663533
0.9955476944510537	8009.808512584183
0.9988661867658906	7526.613088143218
1.002195740721777	4709.752819068846
1.0055363931908496	3790.911688193206
1.0088881811681525	3159.449502472752
1.0122511417720463	2645.9638521131205
1.01562531224462	1476.3343314652698
1.019010729952102	648.5240578442865
1.0224074323852759	436.5657322469128
1.0258154571598936	599.1375612304264
1.0292348420170931	812.5063828619353
1.0326656248238169	552.2321123744176
1.0361078435732296	389.85904966535253
1.0395615363851405	690.0567608221685
1.0430267415064245	1095.7992435654687
1.0465034973114462	1349.628780693527
1.0499918423024843	1497.82192510335
1.0534918151101593	1846.09033682258
1.05700345449386	2138.0009055635815
1.0605267993421728	2126.1525224513184
1.0640618886733135	1946.912098364061
1.067608761635558	1667.7944545345256
1.0711674575076766	1396.6094263558123
1.0747380156993689	1179.6194390721405
1.0783204757517002	997.2980125882293
1.0819148773375393	835.2104093662217
1.085521260261998	705.1269025279364
1.0891396644628712	606.7329786775642
1.092770130011081	488.5418883490656
1.0964126971111179	340.4177729782181
1.1000674061014886	224.7973858126174
1.10373429745516	126.6633618999321
1.1074134117800107	48.480853872189485
1.1111047898192774	13.668010906160806
1.1148084724520084	4.30022722049088
1.1185245006935154	1.6916154247474113
1.1222529156958272	1.2097055784426674
1.1259937587481466	1.1183666994092942
1.1297470712773072	2.4979871359437893
1.1335128948482316	2.385904931929905
1.1372912711643925	5.875677181099066
1.1410822420682738	12.801447333776272
1.1448858495418348	7.247321930122606
1.1487021357069744	2.190395296495938
1.1525311428259977	1.6779722582636885
1.1563729133020846	0.5082939139028262
1.1602274896797582	0.2529580782745418
1.1640949146453576	1.798756918619507
1.1679752310275089	6.199901281796756
1.1718684817976006	3.594240557577926
1.1757747100702594	4.314908806668681
1.1796939591038271	12.919936478947937
1.1836262723008397	13.201588516567965
1.1875716932085094	13.450136561679598
1.1915302655192046	20.43890074082444
1.1955020330709352	29.518735118061795
1.1994870398478386	40.4705228941633
1.2034853299806647	48.51522831795289
1.207496947747267	47.151822555346186
1.2115219375730912	49.11013540787353
1.2155603440316685	64.56995300556946
1.2196122118451074	86.22679424837123
1.2236775858845912	125.15041526715699
1.2277565111708733	224.49419932680195
1.2318490328747762	306.93699081636635
1.2359551963176922	441.84282947149126
1.2400750469720847	712.6747703765478
1.2442086304619917	1113.4162777716713
1.248355992563532	1480.376964240227
1.2525171792054102	1595.6113006661838
1.2566922364694284	1922.4615630805397
1.2608812105909932	2826.1532585087907
1.2650841479596302	4125.848588572125
1.2693010951194956	5179.634886911394
1.273532098769894	4687.540814646086
1.2777772057657937	3668.802920913169
1.2820364631183463	2738.788982279044
1.2863099179954076	1708.8013908497137
1.2905976177220593	1084.041490887755
1.2948996097811327	920.967749417161
1.2992159418137368	805.0808388589725
1.3035466616197826	651.7733255988769
1.3078918171585154	551.3817100266385
1.3122514565490437	352.60178251707464
1.3166256280708741	258.96201871948597
1.3210143801644436	278.3297500333776
1.3254177614316587	300.96374561326246
1.329835820636431	163.3462169584745
1.3342686067052192	56.47547470383841
1.33871616872757	23.57242046364189
1.343178555956662	2.389533312390204
1.347655817809851	0.15579162816186723
1.352148003869217	0.04850935207478474
1.3566551638821147	0.003786965856807618
1.3611773477617217	0.00043641139482579277
1.3657146055875944	0.0003887165065231296
1.3702669876062197	0.0005722197655844196
1.3748345442315741	0.0057231799547724106
1.3794173260456792	0.008118978678185283
1.384015383799165	0.0019327505120834204
1.388628768411829	0.009726942859320596
1.3932575309732018	0.016232755519988967
1.3979017227431125	0.029553377740586306
1.4025613951522564	0.05846818347675853
1.407236599802764	0.05452944779443193
1.4119273884687735	0.10890107574211633
1.4166338130970026	0.10071186967379046
1.4213559258073263	0.13999135848216787
1.4260937788933508	0.3040785571171141
1.4308474248229952	0.6062544062392375
1.4356169162390722	0.8507021885815477
1.4404023059598692	1.5473180661538146
1.4452036469797356	3.748356880224728
1.450020992469668	13.805023161066437
1.4548543957779003	35.48760257702687
1.4597039104304934	48.14473806650885
1.4645695901319284	22.6977691205726
1.469451488765702	5.317106256306128
1.4743496603949209	1.2519083549614338
1.479264159262904	1.168678627343241
1.4841950397937806	0.6979591026861175
1.4891423565930935	0.46482382093221597
1.4941061644484037	0.5487780491029149
1.4990865183298985	0.790261891535275
1.5040834733909982	1.788191927777197
1.5090970849689684	2.045954195276209
1.5141274085855316	0.3780553487930774
1.5191744999474837	1.4788233919579137
1.5242384149473087	4.731122544596399
1.5293192096638	11.565589589016485
1.5344169403626793	12.045744782018794
1.5395316634972218	16.37096374787258
1.544663435708879	41.411768142308084
1.5498123138279087	106.6256090233297
1.554978354874002	278.3168658529074
1.5601616160569156	649.7094272513674
1.5653621547771055	1542.5015196658223
1.5705800286263625	3037.6917212654153
1.5758152953884506	4379.242855143268
1.5810680130397454	5763.008743008495
1.5863382397498782	6953.859596827244
1.5916260338823778	8295.404263723443
1.5969314539953192	8548.179317134525
1.6022545588419705	7174.109938533097
1.6075954073714436	4811.203383351081
1.6129540587293487	2512.655753045678
1.6183305722584467	951.5114633188903
1.6237250074993084	270.28162979023233
1.6291374241909726	74.99177969024379
1.6345678822716092	34.62664508579118
1.6400164418791816	20.202319737938165
1.6454831633521123	19.21932737701195
1.6509681072299527	13.328131076366997
1.6564713342540527	60.743460092063266
1.6619929053682332	132.70034906698666
1.6675328817194608	51.684954548656336
1.6730913246585257	24.389317708483325
1.6786682957407209	61.97439686073394
1.6842638567265233	70.61622375170474
1.6898780695822784	31.824398843961326
1.6955109964808863	11.320988903883043
1.7011626998024894	6.406321225275083
1.7068332421351646	21.162623966163135
1.7125226862756153	38.59208061506223
1.7182310952298672	55.790320220362446
1.7239585322139668	39.01241517986804
1.7297050606546804	12.360050602213946
1.7354707441901962	15.876553586649841
1.7412556466708302	36.156051048851886
1.747059832159733	73.98727300844419
1.752883364933599	101.87691202405618
1.7587263094833776	81.97063952831219
1.7645887305149892	58.26914596281599
1.7704706929500391	40.0614422944427
1.7763722619265396	35.81716324516604
1.7822935027996283	33.05808488025346
1.7882344811422937	14.247534392359315
1.7941952627461015	6.116947221357549
1.8001759136219222	5.906040434977866
1.8061765000006618	2.4886333679374717
1.8121970883339975	1.768628492776485
1.818237745295111	1.4618667593420496
1.8242985377794283	2.4986688451418075
1.8303795329053596	0.9662251255561704
1.8364807980150446	0.21150774044569154
1.8426024006750947	0.5617183583672299
1.8487444086773455	0.7319542465491592
1.8549068900396033	0.4590611489130306
1.861089913006402	0.35857937034603204
1.8672935460497566	0.21974577528100067
1.873517857869923	0.09005411377107303
1.879762917396156	0.8119451671860656
1.8860287937874767	2.246764314624559
1.8923155564334353	2.567070550497478
1.8986232749548801	1.6956405741145695
1.9049520192047298	0.5686178168300289
1.9113018592687456	0.5494638659137103
1.9176728654663082	0.6302199319893426
1.9240651083511964	0.8576310992745323
1.9304786587123668	0.3411056653882568
1.9369135875747419	0.0635080248953621
1.9433699661999908	0.030451939991533096
1.9498478660873244	0.05740393118784985
1.9563473589742824	0.3383140729206507
1.9628685168375302	1.1138150589490328
1.9694114118936552	1.6196488414711814
1.9759761165999676	1.569823469280451
1.9825627036553009	1.7103379101484004
1.9891712460008188	2.728359426766897
1.9958018168208218	3.8125912147696694
2.002454489543558	3.8029924021289006
2.0091293378420367	2.948114829690204
2.0158264356348434	2.984562127185887
2.02254585708696	3.5994026979898566
2.029287676610583	6.614879675035141
2.036051968865952	7.612632861843405
2.042838808762172	8.107672723222604
2.049648271458046	9.343497332603457
2.0564804323629065	9.87509587263342
2.0633353671374497	9.659305642426155
2.0702131516945745	9.14390989766135
2.0771138622002234	7.9818798498633114
2.084037575074224	7.037572238784048
2.0909843669911385	6.246778764036403
2.097954314881109	5.504994955251111
2.1049474959307126	5.151613224506693
2.1119639875838154	5.183319314293488
2.1190038675424283	5.375556590962472
2.12606721376757	5.835293577377753
2.1331541044801288	6.260194358155875
2.140264618161729	6.889296592988807
2.147398833555602	7.444489896573065
2.154556829667454	7.041268823633115
2.1617386857663456	6.318378727725187
2.1689444813855667	5.738165789363279
2.176174296323519	5.582027909284759
2.1834282106445975	5.027838511716329
2.19070630468008	3.079202645072551
2.1980086590290138	0.878445218442165
2.2053353545591103	0.2890110228920592
2.2126864724076407	0.4915040257727334
2.220062093982333	0.24923455478781212
2.2274623009622747	0.21761857288851008
2.2348871752988155	0.17388733535110623
2.2423367992164787	0.1138193002932568
2.2498112552138667	0.06016366367096345
2.25731062606458	0.04675613694373667
2.2648349948181288	0.010980679932521633
2.272384444800856	0.014449953431476408
2.2799590596168593	0.039755193570696526
2.2875589231489153	0.022898344340437696
2.295184119559412	0.015101651927806051
2.302834733291277	0.03743137645934547
2.3105108490689146	0.1450791965294287
2.3182125518991445	0.10542611482358473
2.325939927072142	0.029546529109114476
2.3336930601623824	0.02520246581428684
2.341472037029591	0.06458288322858335
