#wavelength (micron)	surface_flux (erg / (cm2 micron s))
0.40133895199999997	1.7264158097597746
0.40267674850666674	1.433860104570829
0.40401900433502225	0.1753664568848407
0.4053657343494724	0.18609970573920068
0.4067169534639707	2.1981073342650244
0.40807267664218394	12.416243595850881
0.4094329188976579	44.807981560530536
0.41079769529398347	120.37241100178366
0.41216702094496344	263.69312796837636
0.41354091101477997	498.4828907924684
0.4149193807181627	839.2408382825681
0.41630244532055655	1265.9447754627654
0.41769012013829176	1603.4554261173741
0.41908242053875283	1231.785571309889
0.4204793619405487	448.7246465814514
0.42188095981368384	1178.7054272149524
0.42328722967972954	3912.1446065799696
0.4246981871119953	6632.477850790559
0.42611384773570193	8751.82411831474
0.4275342272281543	10832.736564536333
0.4289593413189149	13125.472392026619
0.43038920578997797	15572.378105103802
0.4318238364759446	17998.996478770463
0.43326324926419774	20948.724288882542
0.4347074600950785	23384.316315346063
0.4361564849620621	25682.90462799905
0.43761033991193565	28638.602664300426
0.4390690410449755	32280.319995286332
0.44053260451512544	35295.824186880905
0.4420010465301759	39463.996371614674
0.44347438335194317	44754.56834244888
0.4449526312964497	50075.10936186375
0.44643580673410455	53081.04850497122
0.44792392608988496	55854.078103426786
0.4494170058435179	60170.846466285235
0.450915062529663	64007.75978665021
0.4524181127380953	67540.25822331726
0.45392617311388894	69478.36615808312
0.45543926035760196	55015.94383390813
0.45695739122546064	42862.62130808448
0.4584805825295456	22034.234659861144
0.46000885113797746	14197.603837097473
0.46154221397510403	12114.562771038296
0.4630806880216877	9680.074265011515
0.4646242903150934	7456.6775179213155
0.4661730379494771	5830.3526612679425
0.4677269480759754	4510.726908994126
0.4692860379028953	3283.6075509765824
0.47085032469590504	2222.038784472481
0.4724198257782247	1412.2529538902465
0.47399455853081884	868.8080291563217
0.4755745403925883	539.0862848409527
0.4771597888605636	349.445348849468
0.47875032149009894	241.34177114911245
0.4803461558950659	171.45068908880486
0.48194730974804956	122.80148323390303
0.48355380078054305	89.85908865080923
0.4851656467831449	68.2234443804384
0.48678286560575545	54.15742672888822
0.4884054751577746	44.533086753935265
0.4900334934083006	37.502879577126656
0.4916669383863283	31.795531389048897
0.4933058281809494	26.81849277370982
0.4949501809415526	22.484491588676917
0.4966000148780246	18.60059204082963
0.4982553482609513	14.958405673861657
0.4999161994218212	11.736226916115273
0.5015825867532273	9.215006023801452
0.5032545287090715	7.533358086456453
0.5049320438047684	6.6979415034222685
0.506615150617451	6.488608007948739
0.5083038677861758	6.442580157849427
0.5099982140121297	6.440967250301866
0.5116982080588369	6.439198449735782
0.5134038687523664	6.443258142582543
0.515115214981541	6.480707818394516
0.5168322656981462	6.521964866752054
0.5185550399171401	6.589698346618502
0.5202835567168639	6.645322216063971
0.5220178352392535	6.692728975693177
0.5237578946900511	6.7387061794877035
0.525503754339018	6.794071262455357
0.527255433520148	6.857576262356352
0.5290129516318819	6.9314344904103535
0.5307763281373216	7.022759938897903
0.532545582564446	7.131574820686519
0.5343207345063276	7.2489188863010785
0.5361018036213486	7.371542428436024
0.5378888096334199	7.507766711621472
0.5396817723321979	7.643456560318111
0.5414807115733054	7.782794573018164
0.5432856472785497	7.957211925150954
0.545096599436145	8.10739000989616
0.5469135881009322	8.24723439261096
0.5487366333946019	8.461831652182148
0.5505657555059172	8.666788383431689
0.5524009746909371	8.869438535241429
0.5542423112732402	9.064880687349687
0.556089785644151	9.25779241399318
0.557943418262965	9.448250194762437
0.5598032296571749	9.62490588275171
0.5616692404226988	9.779240174582801
0.5635414712241079	9.915272659584915
0.5654199427948549	10.012772910137894
0.5673046759375044	9.980777914353123
0.569195691523963	9.928989562936765
0.5710930104957095	9.932879708490736
0.5729966538640286	9.826112171639972
0.5749066427102419	9.572919520363595
0.576822998185943	9.185491025277965
0.5787457415132294	8.732616430307939
0.5806748939849402	8.12645729269904
0.58261047696489	7.387772587537437
0.5845525118881064	6.38026725120191
0.5865010202610669	4.390680064469583
0.588456023661937	1.7046727308305278
0.5904175437408102	1.6219197769800935
0.5923856022199464	5.140749657178343
0.5943602208940129	9.331879769933243
0.5963414216303263	13.27326202344384
0.598329226369094	17.600760407540243
0.6003236571236578	22.67425018447003
0.6023247359807368	28.55232712190588
0.6043324851006725	35.2794142999792
0.6063469267176749	42.84020698369632
0.6083680831400672	51.253293981167005
0.610395976750534	60.77506132199967
0.6124306300063692	71.47959317324822
0.6144720654397238	83.8206305190628
0.6165203056578563	97.81583770465727
0.6185753733433824	113.88993020174942
0.6206372912545272	132.22452261593742
0.6227060822253756	153.05583807116156
0.6247817691661269	176.47097888438483
0.6268643750633474	202.02651229522814
0.6289539229802253	232.78015898040147
0.6310504360568261	269.0367325232661
0.6331539375103489	309.0328269876673
0.6352644506353834	358.27147116887005
0.6373819988041681	410.6070250437656
0.6395066054668487	468.16161689677944
0.6416382941517382	539.5311470281065
0.6437770884655775	613.4569165955006
0.6459230120937961	676.0702244533541
0.6480760888007754	775.0726035439535
0.6502363424301114	916.7299638202447
0.6524037969048785	1059.6900929514577
0.6545784762278948	1215.5724226490581
0.6567604044819878	1388.790972278303
0.6589496058302612	1604.081147516265
0.6611461045163621	1841.8055124134182
0.66334992486475	2124.4011079278957
0.6655610912809659	2433.452675886563
0.6677796282519025	2779.5445671715843
0.6700055603460756	3008.269652189552
0.6722389122138959	3402.29367132287
0.6744797085879423	4012.2732051961493
0.6767279742832354	4449.208875919497
0.6789837341975129	4822.359376081499
0.6812470133115047	5095.985528452112
0.6835178366892097	5204.923401100813
0.6857962294781739	5086.758899306545
0.6880822169097679	4762.044363850175
0.6903758242994671	4270.351470098628
0.6926770770471321	3679.4699004361773
0.6949860006372892	3422.011727111461
0.6973026206394136	3419.8770735146622
0.6996269627082117	3348.0629969510405
0.7019590525839058	3259.114295794409
0.7042989160925188	3360.659766709639
0.7066465791461606	3513.4172190960876
0.7090020677433145	3620.0815495722336
0.7113654079691256	3710.215580484067
0.7137366259956894	3739.937257125002
0.7161157480823418	3448.8178573944338
0.7185028005759496	3201.747975926524
0.7208978099112028	3269.0567967375246
0.7233008026109069	3344.7787139582765
0.7257118052862767	3209.76047033552
0.728130844637231	3240.411202164797
0.7305579474526884	3107.5032893681073
0.7329931406108642	3002.9400999860427
0.7354364510795671	2962.2995906550377
0.7378879059164991	3114.1710754386672
0.7403475322695541	3301.1734718454695
0.7428153573771193	3403.0761572585034
0.7452914085683765	3431.535863047036
0.7477757132636044	3488.0345240628467
0.7502682989744831	3449.9858825501433
0.7527691933043982	3411.819776419718
0.7552784239487462	3383.3065498914852
0.7577960186952422	3345.844650729099
0.7603220054242263	3236.4992553752736
0.7628564121089738	2674.7058764515496
0.7653992668160038	1387.5608587416243
0.7679505977053904	802.1988960142411
0.7705104330310751	1233.4542206400467
0.7730788011411788	2437.531201596869
0.7756557304783162	3580.0548515699484
0.7782412495799106	4274.937392153861
0.7808353870785104	4806.759987309148
0.7834381717021055	5805.272031859221
0.7860496322744459	6523.466223177166
0.7886697977153608	7493.523355697788
0.7912986970410787	8776.38143423593
0.793936359364549	9149.150199286136
0.7965828138957642	10248.502765641979
0.7992380899420836	12542.772202405586
0.8019022169085571	14517.950557275308
0.8045752242982523	16471.383932871588
0.80725714171258	18173.593185726724
0.809947998851622	18601.980629765294
0.8126478255144608	18717.50004865294
0.8153566515995091	18616.85208195468
0.8180745071048409	22181.13890454642
0.8208014221285237	29377.63184425708
0.8235374268689521	32885.09756510477
0.8262825516251822	38657.70814765718
0.8290368267972661	41980.41350796724
0.8318002828865904	45409.821141094544
0.8345729504962124	48878.40686874008
0.8373548603311998	53817.78053976165
0.8401460431989706	65686.2923821775
0.8429465300096338	72922.86344390515
0.8457563517763327	82429.14716157888
0.8485755396155872	93385.9740885394
0.8514041247476393	98225.53725908829
0.8542421384967981	111781.31131584149
0.8570896122917875	131747.69316962676
0.8599465776660935	147283.85770277135
0.8628130662583139	162642.78750415985
0.8656891098125085	178792.27772246618
0.8685747401785502	195275.18902998118
0.8714699893124788	212778.35501980002
0.8743748892768537	232795.53281025443
0.8772894722411099	253948.04615014888
0.8802137704819137	272950.53006148955
0.8831478163835201	288205.4138100867
0.8860916424381319	286789.5255244761
0.8890452812462591	252845.7366722953
0.89200876551708	210581.40680436805
0.8949821280688037	222172.21845837522
0.8979654018290332	247912.52971868924
0.90095861983513	276431.15351479646
0.9039618152345804	380888.4987738418
0.9069750212853626	399770.41210823733
0.9099982713563137	419285.42381838785
0.9130315989275016	492373.82978177036
0.9160750375905932	543868.8777108804
0.9191286210492287	619082.277850645
0.9221923831193928	736959.6703468994
0.9252663577297908	677845.2007146898
0.9283505789222235	358910.46877979056
0.9314450808519644	192361.38587147367
0.9345498977881376	220875.44989379498
0.9376650641140981	324072.9363867503
0.940790614327812	562894.8860434196
0.9439265830422381	649329.7061082645
0.9470730049857122	614101.2049245981
0.9502299150023314	449535.41764226207
0.9533973480523392	462372.49304354144
0.9565753392125138	453516.70607913245
0.9597639236765556	479164.4347646746
0.9629631367554774	420882.4490429029
0.9661730138779958	660380.199592709
0.9693935905909224	966263.0341342012
0.972624902559559	1140389.4463804613
0.9758669855680909	1137561.5555477529
0.9791198755199847	1260604.2202867628
0.9823836084383848	1352894.6704637655
0.9856582204665127	1580701.1063534755
0.9889437478680678	1930852.337604069
0.9922402270276282	2038646.5906693044
0.9955476944510537	2125411.1572623653
0.9988661867658906	2051135.9330461002
1.002195740721777	2002778.9139883756
1.0055363931908496	2565151.5726489145
1.0088881811681525	2896330.9146576123
1.0122511417720463	3150880.8218314177
1.01562531224462	3081317.6080448376
1.019010729952102	3066588.229936487
1.0224074323852759	3266465.7307077306
1.0258154571598936	3821453.4387561297
1.0292348420170931	4236378.173432233
1.0326656248238169	4257343.94093146
1.0361078435732296	4209275.610259235
1.0395615363851405	4669696.577511159
1.0430267415064245	5350839.741978172
1.0465034973114462	5687867.929756851
1.0499918423024843	5784687.820938429
1.0534918151101593	6202210.261864096
1.05700345449386	6700496.790147422
1.0605267993421728	7021623.209593792
1.0640618886733135	7202821.051341481
1.067608761635558	7222333.565604553
1.0711674575076766	7283405.450982313
1.0747380156993689	7154969.739011708
1.0783204757517002	6911759.383827883
1.0819148773375393	6875350.728723602
1.085521260261998	6593851.744208028
1.0891396644628712	5957343.870156733
1.092770130011081	4792956.055900768
1.0964126971111179	3495528.282472533
1.1000674061014886	2809814.8344648737
1.10373429745516	2085937.6316689316
1.1074134117800107	980419.1310529853
1.1111047898192774	471683.2979391968
1.1148084724520084	453177.99038699083
1.1185245006935154	500598.8818856922
1.1222529156958272	615618.4735934121
1.1259937587481466	647380.9241072749
1.1297470712773072	667712.646070778
1.1335128948482316	333743.40713516163
1.1372912711643925	470562.19334012084
1.1410822420682738	774829.8597799584
1.1448858495418348	572869.0308736528
1.1487021357069744	335970.4838546699
1.1525311428259977	249372.74920179162
1.1563729133020846	118020.21212588795
1.1602274896797582	128236.27806266173
1.1640949146453576	276635.340285944
1.1679752310275089	485034.38165955467
1.1718684817976006	352689.09500586457
1.1757747100702594	262686.279206061
1.1796939591038271	561391.8384384107
1.1836262723008397	762672.5022326802
1.1875716932085094	1108370.3049080265
1.1915302655192046	1300714.1308108727
1.1955020330709352	1619750.962652683
1.1994870398478386	2419962.682131358
1.2034853299806647	3102475.364940518
1.207496947747267	3227553.565971216
1.2115219375730912	3441291.7376379645
1.2155603440316685	4147881.565449427
1.2196122118451074	4977076.602203079
1.2236775858845912	5839514.76869199
1.2277565111708733	7073697.189064309
1.2318490328747762	7957744.179906659
1.2359551963176922	8857912.216129057
1.2400750469720847	10125595.69527649
1.2442086304619917	11343432.585589884
1.248355992563532	12416185.813663242
1.2525171792054102	13043363.640956746
1.2566922364694284	14047018.04818282
1.2608812105909932	14970462.231751498
1.2650841479596302	15151864.846408792
1.2693010951194956	15133976.139925875
1.273532098769894	14414584.177421756
1.2777772057657937	12817899.349603735
1.2820364631183463	11171082.011593353
1.2863099179954076	8839587.374463279
1.2905976177220593	7575137.67814004
1.2948996097811327	7046894.964146752
1.2992159418137368	6578494.159902334
1.3035466616197826	5751982.770871693
1.3078918171585154	4583088.381452799
1.3122514565490437	3154707.130454927
1.3166256280708741	3137410.950591052
1.3210143801644436	3374340.9130498874
1.3254177614316587	2649177.006551015
1.329835820636431	1408544.1512161451
1.3342686067052192	500188.41466876556
1.33871616872757	153297.03142887566
1.343178555956662	51005.442752625
1.347655817809851	22974.025415207972
1.352148003869217	19287.122964250455
1.3566551638821147	7718.650622528176
1.3611773477617217	3376.752928936132
1.3657146055875944	3950.134978926592
1.3702669876062197	6719.113326474901
1.3748345442315741	16278.597126616707
1.3794173260456792	21027.261220332704
1.384015383799165	9077.511514402811
1.388628768411829	11517.550864110886
1.3932575309732018	21227.71454823459
1.3979017227431125	18571.075663509906
1.4025613951522564	26790.70670484521
1.407236599802764	28979.155869101767
1.4119273884687735	35157.42870991401
1.4166338130970026	24169.125893074233
1.4213559258073263	23207.245191690075
1.4260937788933508	32638.918454183477
1.4308474248229952	45529.18529121972
1.4356169162390722	62148.72493801108
1.4404023059598692	113638.57576961508
1.4452036469797356	143035.11412872715
1.450020992469668	177346.8851717739
1.4548543957779003	217274.56469242772
1.4597039104304934	238498.78887668607
1.4645695901319284	258773.3917390191
1.469451488765702	159247.22465606953
1.4743496603949209	85827.21223065686
1.479264159262904	93248.45938696568
1.4841950397937806	98905.83027165229
1.4891423565930935	101919.1039731906
1.4941061644484037	149591.81081106115
1.4990865183298985	286065.3386696894
1.5040834733909982	305335.14149781666
1.5090970849689684	326165.51046461565
1.5141274085855316	224059.96347484033
1.5191744999474837	302520.9188549133
1.5242384149473087	544424.4008242885
1.5293192096638	839760.9799591948
1.5344169403626793	988048.6363300435
1.5395316634972218	1125975.0612905629
1.544663435708879	1314201.4233095518
1.5498123138279087	1746674.852539592
1.554978354874002	2412631.335481662
1.5601616160569156	2571928.2767276377
1.5653621547771055	3312475.87433686
1.5705800286263625	4374893.347055415
1.5758152953884506	4957192.619571591
1.5810680130397454	5445152.513882194
1.5863382397498782	5596239.5138249
1.5916260338823778	5701629.293114211
1.5969314539953192	5099215.324642192
1.6022545588419705	3857639.598705006
1.6075954073714436	2701544.7070802525
1.6129540587293487	1768648.7967185422
1.6183305722584467	1117183.1061363325
1.6237250074993084	697184.7574428762
1.6291374241909726	576272.269725411
1.6345678822716092	446890.32835841895
1.6400164418791816	375828.12794425077
1.6454831633521123	537790.4247142593
1.6509681072299527	664554.9481846355
1.6564713342540527	727580.0082119954
1.6619929053682332	762839.5566743278
1.6675328817194608	388989.87224188197
1.6730913246585257	194096.195971735
1.6786682957407209	395571.7355751019
1.6842638567265233	500015.61699815834
1.6898780695822784	337520.63727629883
1.6955109964808863	188955.9849557266
1.7011626998024894	185225.4664608347
1.7068332421351646	304595.7891425
1.7125226862756153	370046.8501583145
1.7182310952298672	446020.44333343627
1.7239585322139668	432154.7227881377
1.7297050606546804	323988.5900525665
1.7354707441901962	303084.953677667
1.7412556466708302	310471.0814310899
1.747059832159733	420971.1622035814
1.752883364933599	520474.30021692463
1.7587263094833776	424467.35921475786
1.7645887305149892	329917.75078600785
1.7704706929500391	230229.48552935245
1.7763722619265396	226467.84051525098
1.7822935027996283	218091.0672376491
1.7882344811422937	175814.90307747043
1.7941952627461015	105611.836412379
1.8001759136219222	95776.03740973034
1.8061765000006618	62045.52248289682
1.8121970883339975	72619.94964707641
1.818237745295111	114964.17559266672
1.8242985377794283	141555.95020392007
1.8303795329053596	63907.75597374362
1.8364807980150446	37327.0545234597
1.8426024006750947	63537.60393303361
1.8487444086773455	100084.83979056256
1.8549068900396033	94454.44814830205
1.861089913006402	37614.14404174569
1.8672935460497566	21454.017740401312
1.873517857869923	33394.007338571224
1.879762917396156	96689.26583204644
1.8860287937874767	163751.33381480622
1.8923155564334353	221596.89518293765
1.8986232749548801	203310.51359172456
1.9049520192047298	98746.0040617887
1.9113018592687456	86799.83923744796
1.9176728654663082	60604.191424676654
1.9240651083511964	56748.154875240834
1.9304786587123668	31218.77909358251
1.9369135875747419	13157.898927374676
1.9433699661999908	21419.498202890063
1.9498478660873244	30116.837707714236
1.9563473589742824	40015.21914930073
1.9628685168375302	72068.46844928771
1.9694114118936552	112000.98812504012
1.9759761165999676	140667.1596024827
1.9825627036553009	178147.50665360712
1.9891712460008188	220675.34480895367
1.9958018168208218	247382.22632122415
2.002454489543558	250576.55218003708
2.0091293378420367	252747.06197149638
2.0158264356348434	234278.34120630872
2.02254585708696	185265.9938045881
2.029287676610583	277149.95452852
2.036051968865952	339923.19822278956
2.042838808762172	394929.35683539556
2.049648271458046	447614.8720664679
2.0564804323629065	512719.6718081214
2.0633353671374497	605442.064335196
2.0702131516945745	719305.864786441
2.0771138622002234	698806.2781253981
2.084037575074224	701168.3595095432
2.0909843669911385	711290.7462862177
2.097954314881109	705798.4279377353
2.1049474959307126	729801.9352439248
2.1119639875838154	742423.9215442479
2.1190038675424283	706800.6684941938
2.12606721376757	672283.751923154
2.1331541044801288	625312.2415063141
2.140264618161729	575530.1381698273
2.147398833555602	531454.4347848708
2.154556829667454	437666.61473240616
2.1617386857663456	368749.9684863958
2.1689444813855667	318455.3943754927
2.176174296323519	264172.6721476416
2.1834282106445975	226292.67552236433
2.19070630468008	129992.49338015191
2.1980086590290138	40702.330150309
2.2053353545591103	35327.59638123673
2.2126864724076407	78258.35472041342
2.220062093982333	62203.35515744751
2.2274623009622747	43007.65078649472
2.2348871752988155	35371.64525110882
2.2423367992164787	24879.434350161777
2.2498112552138667	17859.283690080647
2.25731062606458	17391.409291130924
2.2648349948181288	9823.083216499184
2.272384444800856	10199.053422530871
2.2799590596168593	15718.385475931962
2.2875589231489153	17354.48193148083
2.295184119559412	15812.264012894759
2.302834733291277	33657.97168645601
2.3105108490689146	59677.74167863938
2.3182125518991445	29351.619925460167
2.325939927072142	13173.674236944953
2.3336930601623824	13188.634115184701
2.341472037029591	6816.900135668341
2.3492769438196897	10439.750684382323
2.3571078669657557	27961.48029138114
2.364964893188975	37820.42042530767
2.372848109499605	21086.234152996632
