#wavelength (micron)	surface_flux (erg / (cm2 micron s))
0.40133895199999997	8.745155311341335e-05
0.40267674850666674	0.00010980407324212109
0.40401900433502225	4.137052120062003e-05
0.4053657343494724	4.858612641221666e-05
0.4067169534639707	0.00019938504165380782
0.40807267664218394	0.0005403205566727363
0.4094329188976579	0.0011362620207307184
0.41079769529398347	0.001999444996519721
0.41216702094496344	0.0031518528741729525
0.41354091101477997	0.004727126101066542
0.4149193807181627	0.00644004477788866
0.41630244532055655	0.008384023479414027
0.41769012013829176	0.010468834812913816
0.41908242053875283	0.009291789468501503
0.4204793619405487	0.005497122521372485
0.42188095981368384	0.0107318993001645
0.42328722967972954	0.026061598091986715
0.4246981871119953	0.03981204210871596
0.42611384773570193	0.0512131338426677
0.4275342272281543	0.06490331620955309
0.4289593413189149	0.0798684665752162
0.43038920578997797	0.09671368925790179
0.4318238364759446	0.11669319763795667
0.43326324926419774	0.13923626181722193
0.4347074600950785	0.163933124267292
0.4361564849620621	0.1908218219584117
0.43761033991193565	0.21837518757010457
0.4390690410449755	0.24299444373780069
0.44053260451512544	0.2720599130761731
0.4420010465301759	0.29701913054574874
0.44347438335194317	0.3355903757285587
0.4449526312964497	0.39444533290304273
0.44643580673410455	0.45287394419787524
0.44792392608988496	0.5196604688814958
0.4494170058435179	0.608910137240281
0.450915062529663	0.7158601907515754
0.4524181127380953	0.8299525594737024
0.45392617311388894	0.9148117040162138
0.45543926035760196	0.9184681658212798
0.45695739122546064	0.9367912190614472
0.4584805825295456	0.8541242177770205
0.46000885113797746	0.8388843097303436
0.46154221397510403	0.8619157611433041
0.4630806880216877	0.8515816924073466
0.4646242903150934	0.827489885515607
0.4661730379494771	0.7733276309217906
0.4677269480759754	0.7101590102303789
0.4692860379028953	0.6455926096195082
0.47085032469590504	0.5941469249844237
0.4724198257782247	0.5442042416072993
0.47399455853081884	0.4855677902850589
0.4755745403925883	0.44476139267850506
0.4771597888605636	0.410618281523025
0.47875032149009894	0.38332921985104024
0.4803461558950659	0.345604273114349
0.48194730974804956	0.2979125624267916
0.48355380078054305	0.24350207712746155
0.4851656467831449	0.1872086953225998
0.48678286560575545	0.16143016230417034
0.4884054751577746	0.14741188901220628
0.4900334934083006	0.13149764646861317
0.4916669383863283	0.12071712122390285
0.4933058281809494	0.11109613325362915
0.4949501809415526	0.10192715723810314
0.4966000148780246	0.09337745636784332
0.4982553482609513	0.08140175753679506
0.4999161994218212	0.07065539147829097
0.5015825867532273	0.05905166997487087
0.5032545287090715	0.04676192087266604
0.5049320438047684	0.04441874570427873
0.506615150617451	0.05188500774176437
0.5083038677861758	0.05493690272477178
0.5099982140121297	0.05885027619302723
0.5116982080588369	0.06439343798929471
0.5134038687523664	0.06975978048556254
0.515115214981541	0.075558003669437
0.5168322656981462	0.08067878572888638
0.5185550399171401	0.08783769575278136
0.5202835567168639	0.09440553832075575
0.5220178352392535	0.09998824333400487
0.5237578946900511	0.1045576281584041
0.525503754339018	0.11043955583907744
0.527255433520148	0.11636806388140618
0.5290129516318819	0.12203373492516202
0.5307763281373216	0.12848595841247892
0.532545582564446	0.13621924309032174
0.5343207345063276	0.1438214490085522
0.5361018036213486	0.1500306903759596
0.5378888096334199	0.15623308776648812
0.5396817723321979	0.1599022620951996
0.5414807115733054	0.1634261534470974
0.5432856472785497	0.1749292170237339
0.545096599436145	0.18132483874216598
0.5469135881009322	0.18305962369751647
0.5487366333946019	0.20114355642608456
0.5505657555059172	0.2188629747398613
0.5524009746909371	0.23419952386694928
0.5542423112732402	0.24777964043506842
0.556089785644151	0.2622657730497677
0.557943418262965	0.27631566989195283
0.5598032296571749	0.2885304849520178
0.5616692404226988	0.29858332863322445
0.5635414712241079	0.3100823136682314
0.5654199427948549	0.31660967586637184
0.5673046759375044	0.2949516393530477
0.569195691523963	0.27582698215074886
0.5710930104957095	0.29784762505260337
0.5729966538640286	0.31471653719841924
0.5749066427102419	0.31161681212647013
0.576822998185943	0.3415492391099586
0.5787457415132294	-3.8859128954087985
0.5806748939849402	0.4722358366210732
0.58261047696489	0.2457017218596725
0.5845525118881064	0.2024135959700298
0.5865010202610669	0.11745263281941715
0.588456023661937	0.03185508204203257
0.5904175437408102	0.024828814953511663
0.5923856022199464	0.10499480026331688
0.5943602208940129	0.23412523109348918
0.5963414216303263	0.3747322619361314
0.598329226369094	0.5034746568439453
0.6003236571236578	0.6960216085409819
0.6023247359807368	0.9638073109824341
0.6043324851006725	1.3068114726428148
0.6063469267176749	1.7161413156351355
0.6083680831400672	2.134838604743197
0.610395976750534	2.627622895388434
0.6124306300063692	3.1720989453263337
0.6144720654397238	3.79968133802568
0.6165203056578563	4.462857821336021
0.6185753733433824	5.2130885856903495
0.6206372912545272	6.027004237789621
0.6227060822253756	6.867342371396988
0.6247817691661269	7.601615264437598
0.6268643750633474	8.014932848320637
0.6289539229802253	9.08071885952335
0.6310504360568261	10.615173801235327
0.6331539375103489	11.704347876021368
0.6352644506353834	13.933575218597676
0.6373819988041681	15.226882847762408
0.6395066054668487	16.082166522237873
0.6416382941517382	18.02016055954751
0.6437770884655775	18.417363838304503
0.6459230120937961	14.615826993882502
0.6480760888007754	14.870990121966523
0.6502363424301114	21.08106121452511
0.6524037969048785	24.659136287358873
0.6545784762278948	27.95861036139114
0.6567604044819878	29.42923884897076
0.6589496058302612	35.00657593873077
0.6611461045163621	41.78982618670923
0.66334992486475	51.87394313437125
0.6655610912809659	60.89766825285157
0.6677796282519025	74.56236328215027
0.6700055603460756	85.4983520815665
0.6722389122138959	99.21428491689036
0.6744797085879423	117.00467716521243
0.6767279742832354	128.83350010922695
0.6789837341975129	136.82221603409272
0.6812470133115047	142.70323776142362
0.6835178366892097	147.25575071466426
0.6857962294781739	144.2898932858817
0.6880822169097679	132.08237958707528
0.6903758242994671	101.01590891697306
0.6926770770471321	52.49511962048092
0.6949860006372892	52.47817941231502
0.6973026206394136	77.8185943355377
0.6996269627082117	74.10654810205696
0.7019590525839058	52.63881093892555
0.7042989160925188	57.55537642891949
0.7066465791461606	66.9581476853614
0.7090020677433145	71.07010264537084
0.7113654079691256	73.46233065879665
0.7137366259956894	68.26185768170393
0.7161157480823418	33.44230657886974
0.7185028005759496	9.470132572700468
0.7208978099112028	14.411448542325157
0.7233008026109069	22.226597508108433
0.7257118052862767	22.12268173126698
0.728130844637231	26.11998571345566
0.7305579474526884	21.499086599057023
0.7329931406108642	27.242029716646712
0.7354364510795671	30.411722743288223
0.7378879059164991	46.513920429344005
0.7403475322695541	83.33336891725008
0.7428153573771193	125.10996406592741
0.7452914085683765	153.49415729721912
0.7477757132636044	200.6004475568107
0.7502682989744831	233.01581114857893
0.7527691933043982	261.09169223801206
0.7552784239487462	299.5508473158443
0.7577960186952422	330.6371225511734
0.7603220054242263	344.41895447196833
0.7628564121089738	318.86642846138983
0.7653992668160038	201.71174654118207
0.7679505977053904	144.05388371756416
0.7705104330310751	207.23710793730802
0.7730788011411788	342.9771679136901
0.7756557304783162	450.6429874049428
0.7782412495799106	487.6594852869928
0.7808353870785104	469.14798658959637
0.7834381717021055	467.01432046731173
0.7860496322744459	374.07281219549697
0.7886697977153608	376.32091697104636
0.7912986970410787	544.5411823141977
0.793936359364549	600.5460360583187
0.7965828138957642	534.8738839033856
0.7992380899420836	529.2093861238712
0.8019022169085571	601.7362679701451
0.8045752242982523	653.3909168168171
0.80725714171258	594.1736470751854
0.809947998851622	308.2344285858231
0.8126478255144608	95.28819011520875
0.8153566515995091	60.33039827100981
0.8180745071048409	137.11683317108236
0.8208014221285237	246.17171032420325
0.8235374268689521	240.00716908099488
0.8262825516251822	299.9719028699182
0.8290368267972661	272.0898933914835
0.8318002828865904	226.66209994717374
0.8345729504962124	188.46740165201504
0.8373548603311998	220.65163579787918
0.8401460431989706	381.34747909501084
0.8429465300096338	445.10876305313644
0.8457563517763327	572.1214391512773
0.8485755396155872	685.8248851603512
0.8514041247476393	800.7428364444446
0.8542421384967981	936.750574066215
0.8570896122917875	1087.031635919317
0.8599465776660935	1246.4972580459912
0.8628130662583139	1292.9070297702979
0.8656891098125085	1242.293804045012
0.8685747401785502	1057.4456321972484
0.8714699893124788	878.44296728417
0.8743748892768537	773.0681239427654
0.8772894722411099	675.273338769701
0.8802137704819137	505.6601449130822
0.8831478163835201	346.78329378501854
0.8860916424381319	166.2100290647249
0.8890452812462591	24.654130447614737
0.89200876551708	1.012147517913611
0.8949821280688037	0.6291802891251467
0.8979654018290332	0.5899843072380114
0.90095861983513	1.6124887347428236
0.9039618152345804	4.728567522865853
0.9069750212853626	3.270940279659706
0.9099982713563137	5.509594765160924
0.9130315989275016	16.13586230520186
0.9160750375905932	27.555469754329106
0.9191286210492287	103.22883782790882
0.9221923831193928	198.71396381405313
0.9252663577297908	108.88042800412713
0.9283505789222235	17.610029464862635
0.9314450808519644	0.42082918490296817
0.9345498977881376	0.04548198762573117
0.9376650641140981	0.578453880125171
0.940790614327812	1.6304081324265751
0.9439265830422381	1.471611129537721
0.9470730049857122	1.9266156413581152
0.9502299150023314	1.800703805249719
0.9533973480523392	1.1058845191542157
0.9565753392125138	1.5956469298804556
0.9597639236765556	1.4601667494858555
0.9629631367554774	3.3993248869778365
0.9661730138779958	33.50608100331444
0.9693935905909224	64.61657211387018
0.972624902559559	55.86036367235324
0.9758669855680909	27.27808068954877
0.9791198755199847	20.962059278186075
0.9823836084383848	18.746970682383562
0.9856582204665127	23.68756592051538
0.9889437478680678	30.461917218356955
0.9922402270276282	32.224431620705495
0.9955476944510537	30.305170699634264
0.9988661867658906	29.07220292965155
1.002195740721777	24.314243510907552
1.0055363931908496	21.35232104100356
1.0088881811681525	19.667395022938134
1.0122511417720463	19.370132604039544
1.01562531224462	8.147780087982389
1.019010729952102	1.7104384160060861
1.0224074323852759	1.1628795477648348
1.0258154571598936	2.570813175875442
1.0292348420170931	4.015880161304536
1.0326656248238169	2.3635069256989953
1.0361078435732296	1.7707068582424403
1.0395615363851405	8.795850380190211
1.0430267415064245	25.8063482946174
1.0465034973114462	36.0384036392044
1.0499918423024843	39.587051328671855
1.0534918151101593	114.39247570242041
1.05700345449386	249.32614891169385
1.0605267993421728	322.7739063583111
1.0640618886733135	356.74457029816375
1.067608761635558	342.40485967412934
1.0711674575076766	315.002709047651
1.0747380156993689	259.7272097628273
1.0783204757517002	206.5205981269051
1.0819148773375393	162.13209679551696
1.085521260261998	125.73400397866938
1.0891396644628712	108.22276813386952
1.092770130011081	84.81100259283963
1.0964126971111179	41.03205856363247
1.1000674061014886	25.056584979252147
1.10373429745516	19.386913030649115
1.1074134117800107	5.5032294772679355
1.1111047898192774	1.1416069853821627
1.1148084724520084	0.46886759239665066
1.1185245006935154	0.1230019501953246
1.1222529156958272	0.06884629422502092
1.1259937587481466	0.05645334538728744
1.1297470712773072	0.0912303773936271
1.1335128948482316	0.06954707350881865
1.1372912711643925	0.23447773146635126
1.1410822420682738	0.644457291420626
1.1448858495418348	0.4237125826299742
1.1487021357069744	0.09013095403006047
1.1525311428259977	0.03156961572898796
1.1563729133020846	0.006036008817239682
1.1602274896797582	0.000596650929372616
1.1640949146453576	0.04945359378212714
1.1679752310275089	0.1953321940369059
1.1718684817976006	0.08278122382412939
1.1757747100702594	0.02187996847647362
1.1796939591038271	0.1048082179661153
1.1836262723008397	0.08207699160483957
1.1875716932085094	0.025981795144044837
1.1915302655192046	0.05598932037594042
1.1955020330709352	0.23081443611942523
1.1994870398478386	0.577668342033613
1.2034853299806647	0.5170839139179161
1.207496947747267	0.33188477282182394
1.2115219375730912	0.38278242416133035
1.2155603440316685	0.45133878911919145
1.2196122118451074	0.7888273226967056
1.2236775858845912	1.2740286966284633
1.2277565111708733	5.693051063841273
1.2318490328747762	9.744019154965683
1.2359551963176922	15.622024744645596
1.2400750469720847	51.768130914847234
1.2442086304619917	115.52858868993789
1.248355992563532	163.21297761617333
1.2525171792054102	147.04002989549076
1.2566922364694284	160.1920496848607
1.2608812105909932	310.0844568918456
1.2650841479596302	633.4478055305033
1.2693010951194956	992.8531029697286
1.273532098769894	660.7936018462693
1.2777772057657937	250.29011912056174
1.2820364631183463	139.9908143730537
1.2863099179954076	58.64444616557974
1.2905976177220593	29.176029230318104
1.2948996097811327	25.165928143915785
1.2992159418137368	15.779749032580314
1.3035466616197826	13.6405239873935
1.3078918171585154	11.673917011671792
1.3122514565490437	4.662032798915274
1.3166256280708741	3.984107728278899
1.3210143801644436	4.301811866993533
1.3254177614316587	3.7170800149455014
1.329835820636431	1.9504121282523914
1.3342686067052192	1.340625532126428
1.33871616872757	0.7096202657701347
1.343178555956662	0.08238563484838608
1.347655817809851	0.011302187494721784
1.352148003869217	0.001705953285641853
1.3566551638821147	0.0005571457523495142
1.3611773477617217	2.9917706122633226e-05
1.3657146055875944	2.657809291855215e-05
1.3702669876062197	2.116232864573471e-05
1.3748345442315741	0.00022528609487943197
1.3794173260456792	0.00034977098618292553
1.384015383799165	6.552857201820484e-05
1.388628768411829	0.00012349897822807224
1.3932575309732018	0.0002544597524908831
1.3979017227431125	0.000760927983683781
1.4025613951522564	0.0017578419086708077
1.407236599802764	0.002360902815468233
1.4119273884687735	0.0068857116388963075
1.4166338130970026	0.006827129898761679
1.4213559258073263	0.007496783215135052
1.4260937788933508	0.015096019342252206
1.4308474248229952	0.01749871910531042
1.4356169162390722	0.02409145277200112
1.4404023059598692	0.12062967753956368
1.4452036469797356	0.3142728229457488
1.450020992469668	0.6954480651696491
1.4548543957779003	0.9427072099170654
1.4597039104304934	0.7540461855558007
1.4645695901319284	0.41374263770959757
1.469451488765702	0.08788081951056316
1.4743496603949209	0.009890302611982676
1.479264159262904	0.01022924498760963
1.4841950397937806	0.006245826276577621
1.4891423565930935	0.010247108970511187
1.4941061644484037	0.01667973908575733
1.4990865183298985	0.013194739559604884
1.5040834733909982	0.014568118413219831
1.5090970849689684	0.02875859160571149
1.5141274085855316	0.00719662746042805
1.5191744999474837	0.010902431100007026
1.5242384149473087	0.07618196180243193
1.5293192096638	0.2909119391033558
1.5344169403626793	0.2263633708975726
1.5395316634972218	0.37557471218206856
1.544663435708879	0.5481968593223486
1.5498123138279087	1.4742122854021793
1.554978354874002	4.819447783685592
1.5601616160569156	10.479292876430131
1.5653621547771055	39.72017156451232
1.5705800286263625	126.00255735674158
1.5758152953884506	212.487101527577
1.5810680130397454	271.6304530962558
1.5863382397498782	353.638472557374
1.5916260338823778	634.723581389056
1.5969314539953192	704.5258301180368
1.6022545588419705	573.1788077180188
1.6075954073714436	307.62410434290956
1.6129540587293487	111.07434972200143
1.6183305722584467	28.656212601119528
1.6237250074993084	10.872501119754144
1.6291374241909726	3.495700219847635
1.6345678822716092	1.9430227439082048
1.6400164418791816	0.4638159865181178
1.6454831633521123	0.3790496437523088
1.6509681072299527	0.1366333540753138
1.6564713342540527	3.4349342196815758
1.6619929053682332	8.078747912435082
1.6675328817194608	2.5370680720399563
1.6730913246585257	0.4878698294141789
1.6786682957407209	3.5822976710120265
1.6842638567265233	3.8066271453822615
1.6898780695822784	1.0738149505344634
1.6955109964808863	0.06636636346340957
1.7011626998024894	0.06441677700812481
1.7068332421351646	0.8745058102809848
1.7125226862756153	1.5339958895705832
1.7182310952298672	2.1207741140056156
1.7239585322139668	1.4251734382555286
1.7297050606546804	0.11944619174185152
1.7354707441901962	0.4867647627687231
1.7412556466708302	1.6933066754162311
1.747059832159733	2.186118158880883
1.752883364933599	2.577274582909132
1.7587263094833776	1.4602456576808607
1.7645887305149892	1.0129819965733395
1.7704706929500391	0.9286582958504999
1.7763722619265396	3.1622824103211604
1.7822935027996283	4.3211070957832245
1.7882344811422937	1.3590948048164324
1.7941952627461015	0.40938908005599883
1.8001759136219222	0.20914022333473814
1.8061765000006618	0.2654208890059746
1.8121970883339975	0.3006711798279639
1.818237745295111	0.4894703154266696
1.8242985377794283	1.052309225834862
1.8303795329053596	0.3756953928320096
1.8364807980150446	0.04584572495947756
1.8426024006750947	0.19317770889932798
1.8487444086773455	0.23392031871179408
1.8549068900396033	0.125786536672445
1.861089913006402	0.07335093222091159
1.8672935460497566	0.02081370633266652
1.873517857869923	0.019965720200667877
1.879762917396156	0.27194093330305047
1.8860287937874767	0.7302918045509437
1.8923155564334353	0.7162497940258092
1.8986232749548801	0.41409449388076436
1.9049520192047298	0.1532466850138849
1.9113018592687456	0.12475608151052094
1.9176728654663082	0.12852288059388878
1.9240651083511964	0.20763145553623283
1.9304786587123668	0.05759764329049209
1.9369135875747419	0.002469722747481456
1.9433699661999908	0.0021081832648025146
1.9498478660873244	0.0013180142175846395
1.9563473589742824	0.03474062542864973
1.9628685168375302	0.16838707950079626
1.9694114118936552	0.25906548886776193
1.9759761165999676	0.3652755715354661
1.9825627036553009	0.3513886421615024
1.9891712460008188	0.5455809921825435
1.9958018168208218	1.0617503161947501
2.002454489543558	1.1203280521332806
2.0091293378420367	0.6287022047336775
2.0158264356348434	0.47568559830014534
2.02254585708696	0.7931584901126938
2.029287676610583	2.002009073123322
2.036051968865952	2.146981835541845
2.042838808762172	2.201189757206209
2.049648271458046	2.564561162613224
2.0564804323629065	3.3685272391279146
2.0633353671374497	3.8479193699217595
2.0702131516945745	4.195618005904692
2.0771138622002234	3.507393037656287
2.084037575074224	3.281017274043278
2.0909843669911385	3.0376434208833794
2.097954314881109	2.641738085112428
2.1049474959307126	2.6727944630467233
2.1119639875838154	2.9588640494075245
2.1190038675424283	2.9398336915447394
2.12606721376757	3.13720018194502
2.1331541044801288	3.229740635040341
2.140264618161729	3.013522065495058
2.147398833555602	3.0766199277805826
2.154556829667454	2.8935144801828203
2.1617386857663456	2.100128414270968
2.1689444813855667	1.9908062595968987
2.176174296323519	2.1327518843086497
2.1834282106445975	1.9078779937141668
2.19070630468008	1.020852054477965
2.1980086590290138	0.20019082609785263
2.2053353545591103	0.07449747021077956
2.2126864724076407	0.1336999349993458
2.220062093982333	0.05561675763977285
2.2274623009622747	0.038038070089939896
2.2348871752988155	0.02118767574761317
2.2423367992164787	0.008518228838318351
2.2498112552138667	0.005232777960948927
2.25731062606458	0.004844361765697912
2.2648349948181288	0.001029617054974419
2.272384444800856	0.00165233548338872
2.2799590596168593	0.004970691910750242
