#wavelength (micron)	surface_flux (erg / (cm2 micron s))
0.40133895199999997	0.0030480756941243395
0.40267674850666674	0.003073525783309282
0.40401900433502225	0.0007167899384600448
0.4053657343494724	0.0008021511366995784
0.4067169534639707	0.005073806892756587
0.40807267664218394	0.020059121456806495
0.4094329188976579	0.05789216696207773
0.41079769529398347	0.13328568591928058
0.41216702094496344	0.2623697037022191
0.41354091101477997	0.46247684865093835
0.4149193807181627	0.740979104650133
0.41630244532055655	1.0918066268644147
0.41769012013829176	1.394110306463992
0.41908242053875283	1.1146326035462912
0.4204793619405487	0.4572848138183048
0.42188095981368384	1.1457943658866456
0.42328722967972954	3.7155199508461827
0.4246981871119953	6.317582084277305
0.42611384773570193	8.546554899622068
0.4275342272281543	10.957798067316894
0.4289593413189149	13.667792098626904
0.43038920578997797	16.76361662460641
0.4318238364759446	20.314194500325694
0.43326324926419774	24.360861606102652
0.4347074600950785	28.961543945702655
0.4361564849620621	34.180348383372454
0.43761033991193565	40.006278513113294
0.4390690410449755	46.372694002650015
0.44053260451512544	53.720251887994905
0.4420010465301759	61.81853799986487
0.44347438335194317	70.95941085521797
0.4449526312964497	81.75599273170651
0.44643580673410455	93.78216149770772
0.44792392608988496	106.93426733187921
0.4494170058435179	121.73517504514142
0.450915062529663	138.49839489444588
0.4524181127380953	155.95543191841043
0.45392617311388894	159.25972305031212
0.45543926035760196	127.3128259893765
0.45695739122546064	102.81673674858689
0.4584805825295456	50.55150011720633
0.46000885113797746	32.30995250136918
0.46154221397510403	29.11932883586458
0.4630806880216877	25.200338621915837
0.4646242903150934	21.552134025317702
0.4661730379494771	18.439430999125296
0.4677269480759754	15.747592969988274
0.4692860379028953	13.279161068980828
0.47085032469590504	11.070129707210992
0.4724198257782247	9.108215212364476
0.47399455853081884	7.394483541394316
0.4755745403925883	6.02414061994796
0.4771597888605636	4.946727612085263
0.47875032149009894	4.147821715253811
0.4803461558950659	3.410743649846578
0.48194730974804956	2.6992222993159034
0.48355380078054305	2.0844971346843377
0.4851656467831449	1.5951246667263344
0.48678286560575545	1.2902981768305686
0.4884054751577746	1.0919313971190265
0.4900334934083006	0.9367454668154874
0.4916669383863283	0.821511830569072
0.4933058281809494	0.7246341121269384
0.4949501809415526	0.6411873370953849
0.4966000148780246	0.5684242633579976
0.4982553482609513	0.4907365005708136
0.4999161994218212	0.42027461693813284
0.5015825867532273	0.35944970954722016
0.5032545287090715	0.31063671280899435
0.5049320438047684	0.29566363109952637
0.506615150617451	0.3165109503649344
0.5083038677861758	0.32970341799958114
0.5099982140121297	0.3432626536887675
0.5116982080588369	0.3591100412580963
0.5134038687523664	0.375272149012707
0.515115214981541	0.3934716528880568
0.5168322656981462	0.4103646242541099
0.5185550399171401	0.43331488273044894
0.5202835567168639	0.4545116707931544
0.5220178352392535	0.4736342994242205
0.5237578946900511	0.49189854910088204
0.525503754339018	0.5121007064069963
0.527255433520148	0.5326816469102643
0.5290129516318819	0.5536233393504799
0.5307763281373216	0.5766952800870688
0.532545582564446	0.60208669347062
0.5343207345063276	0.6277079165715159
0.5361018036213486	0.6523042592507221
0.5378888096334199	0.6788692725648752
0.5396817723321979	0.7041784749146573
0.5414807115733054	0.7291329338995878
0.5432856472785497	0.7635149974260468
0.545096599436145	0.7880675176832876
0.5469135881009322	0.8074272452497488
0.5487366333946019	0.8554907442167855
0.5505657555059172	0.9012072215022274
0.5524009746909371	0.9426999812980206
0.5542423112732402	0.9801937192402032
0.556089785644151	1.0191999771592573
0.557943418262965	1.057419698519845
0.5598032296571749	1.0921769793919485
0.5616692404226988	1.1226378591027624
0.5635414712241079	1.1518939280604403
0.5654199427948549	1.1726236977961426
0.5673046759375044	1.1531232843536507
0.569195691523963	1.129447503840938
0.5710930104957095	1.1513594630219086
0.5729966538640286	1.168886427174667
0.5749066427102419	1.1463216165235655
0.576822998185943	1.0978208384628922
0.5787457415132294	1.0600608877429036
0.5806748939849402	0.9950878446826741
0.58261047696489	0.9038419039573505
0.5845525118881064	0.7773096279848999
0.5865010202610669	0.509921523264495
0.588456023661937	0.17414250066711984
0.5904175437408102	0.15656195441992637
0.5923856022199464	0.5652070231493888
0.5943602208940129	1.1126383935289268
0.5963414216303263	1.63592310951559
0.598329226369094	2.1828619881416165
0.6003236571236578	2.8826157142693907
0.6023247359807368	3.7353682577772855
0.6043324851006725	4.746989058143602
0.6063469267176749	5.905619651038265
0.6083680831400672	7.184991506662604
0.610395976750534	8.64024691503593
0.6124306300063692	10.234977969044674
0.6144720654397238	12.06870658126106
0.6165203056578563	14.081393963576113
0.6185753733433824	16.369049334124227
0.6206372912545272	18.92058659115048
0.6227060822253756	21.73602809640599
0.6247817691661269	24.729972605939878
0.6268643750633474	27.514935314772636
0.6289539229802253	31.285231623821712
0.6310504360568261	36.030809567574565
0.6331539375103489	40.595327807405525
0.6352644506353834	47.034408927364765
0.6373819988041681	52.383028982717235
0.6395066054668487	57.221652531407656
0.6416382941517382	64.84767918873546
0.6437770884655775	70.1488777316273
0.6459230120937961	66.84130452519406
0.6480760888007754	73.73153219871003
0.6502363424301114	93.40802589490426
0.6524037969048785	107.62781172201532
0.6545784762278948	120.54320409047133
0.6567604044819878	132.9655928541819
0.6589496058302612	153.76838647599638
0.6611461045163621	174.39211422584154
0.66334992486475	202.92864165566723
0.6655610912809659	230.77249090334666
0.6677796282519025	267.4755072835946
0.6700055603460756	295.2678240570873
0.6722389122138959	333.8749276507161
0.6744797085879423	387.3454080369485
0.6767279742832354	425.880242997987
0.6789837341975129	456.98684307653315
0.6812470133115047	482.10019466909216
0.6835178366892097	497.9573679151972
0.6857962294781739	492.1539001479804
0.6880822169097679	465.6770453089617
0.6903758242994671	404.2360450388037
0.6926770770471321	299.684937420354
0.6949860006372892	299.67045998544785
0.6973026206394136	359.783707134826
0.6996269627082117	352.3017782605982
0.7019590525839058	304.02005585798554
0.7042989160925188	327.4846568792565
0.7066465791461606	364.08847318027654
0.7090020677433145	379.1742324160775
0.7113654079691256	395.0556403811539
0.7137366259956894	390.90995142796
0.7161157480823418	281.3138567827451
0.7185028005759496	196.1931430670805
0.7208978099112028	223.77165232701262
0.7233008026109069	274.8597658997382
0.7257118052862767	276.3329669362282
0.728130844637231	297.5580461918353
0.7305579474526884	266.63347765301813
0.7329931406108642	270.5802074867954
0.7354364510795671	279.0978667249895
0.7378879059164991	352.53829155396585
0.7403475322695541	467.45048171952646
0.7428153573771193	555.3347278636078
0.7452914085683765	607.5638403624747
0.7477757132636044	680.2446684902312
0.7502682989744831	708.841219765245
0.7527691933043982	738.5705356332392
0.7552784239487462	779.6403407026264
0.7577960186952422	814.0163211090863
0.7603220054242263	812.1991151129599
0.7628564121089738	695.4096001403964
0.7653992668160038	372.1837063478332
0.7679505977053904	217.23876421473668
0.7705104330310751	340.0992158350188
0.7730788011411788	670.738308497288
0.7756557304783162	964.6396870403896
0.7782412495799106	1108.8646569204057
0.7808353870785104	1170.122976699008
0.7834381717021055	1322.9092778523134
0.7860496322744459	1323.802299634271
0.7886697977153608	1471.3200703612636
0.7912986970410787	1835.1447375898888
0.793936359364549	1904.8307994310571
0.7965828138957642	1925.3763057952651
0.7992380899420836	2157.2344753265097
0.8019022169085571	2475.4414184341163
0.8045752242982523	2715.3736504571407
0.80725714171258	2715.345130604497
0.809947998851622	2062.7011569845045
0.8126478255144608	1364.7479087169918
0.8153566515995091	1144.8394332982118
0.8180745071048409	1669.8851494138269
0.8208014221285237	2471.079560323022
0.8235374268689521	2554.2232579891097
0.8262825516251822	3186.3095106487995
0.8290368267972661	3094.4486256933096
0.8318002828865904	2922.5009650449633
0.8345729504962124	2664.173008344469
0.8373548603311998	2817.553723432519
0.8401460431989706	4104.430305757687
0.8429465300096338	4409.893705705741
0.8457563517763327	5111.036824666976
0.8485755396155872	5940.829128945447
0.8514041247476393	6524.598647724767
0.8542421384967981	7396.578479557922
0.8570896122917875	8456.403825646647
0.8599465776660935	9467.955036373918
0.8628130662583139	10092.952868557932
0.8656891098125085	10498.646375907847
0.8685747401785502	10520.872061938706
0.8714699893124788	10452.602067944947
0.8743748892768537	10683.37537795812
0.8772894722411099	10883.981804576566
0.8802137704819137	10335.916218401766
0.8831478163835201	9152.642910229883
0.8860916424381319	6318.924407793695
0.8890452812462591	2345.310470635158
0.89200876551708	599.4116351568852
0.8949821280688037	929.6335513540954
0.8979654018290332	1011.3256642387679
0.90095861983513	1071.2528009905654
0.9039618152345804	2354.604670341094
0.9069750212853626	2334.3267996579407
0.9099982713563137	2755.503995690715
0.9130315989275016	4206.721811373078
0.9160750375905932	4642.387748728168
0.9191286210492287	8282.857729058336
0.9221923831193928	14851.535049758451
0.9252663577297908	11432.726165487562
0.9283505789222235	3414.4488460368357
0.9314450808519644	274.1547362971357
0.9345498977881376	194.81254877057188
0.9376650641140981	799.4485967891567
0.940790614327812	1952.9029816488248
0.9439265830422381	2213.230238871129
0.9470730049857122	2359.7681615600673
0.9502299150023314	1500.894303094559
0.9533973480523392	1309.7774469801295
0.9565753392125138	1607.5664257182857
0.9597639236765556	1388.612249666622
0.9629631367554774	975.7365820233578
0.9661730138779958	4298.434743068312
0.9693935905909224	8942.111235128206
0.972624902559559	9786.52865652288
0.9758669855680909	7549.422966496369
0.9791198755199847	7533.308351528338
0.9823836084383848	6610.24496040393
0.9856582204665127	9148.49444230587
0.9889437478680678	12602.481958498636
0.9922402270276282	12190.323486621948
0.9955476944510537	12378.529586875753
0.9988661867658906	12862.56052206497
1.002195740721777	11744.351062561094
1.0055363931908496	13441.514561300637
1.0088881811681525	15372.918173689426
1.0122511417720463	16819.261014586296
1.01562531224462	10636.707263160928
1.019010729952102	5586.366726009422
1.0224074323852759	6324.071716251325
1.0258154571598936	11225.184249637728
1.0292348420170931	13978.652250924284
1.0326656248238169	11158.832506206694
1.0361078435732296	7963.250807042859
1.0395615363851405	16193.866928142445
1.0430267415064245	31959.325103824776
1.0465034973114462	38738.77997962525
1.0499918423024843	35634.82103905719
1.0534918151101593	55630.74719029278
1.05700345449386	88790.8815884968
1.0605267993421728	104957.17141678938
1.0640618886733135	111858.97606804133
1.067608761635558	109306.9433586431
1.0711674575076766	107827.38776942043
1.0747380156993689	95965.40547566011
1.0783204757517002	79113.98115726057
1.0819148773375393	71892.61332366568
1.085521260261998	62510.68524294846
1.0891396644628712	52807.96710699472
1.092770130011081	37320.84166785777
1.0964126971111179	18911.969416396696
1.1000674061014886	12796.237415187414
1.10373429745516	9559.970319071124
1.1074134117800107	2720.3221278351452
1.1111047898192774	761.3016543261468
1.1148084724520084	494.13457445829306
1.1185245006935154	290.3709721567749
1.1222529156958272	305.46005354790134
1.1259937587481466	314.09922839392107
1.1297470712773072	310.495651872635
1.1335128948482316	151.24601056163746
1.1372912711643925	400.917091833165
1.1410822420682738	939.7337102252528
1.1448858495418348	679.1913437477463
1.1487021357069744	205.79112217645692
1.1525311428259977	58.752658563090336
1.1563729133020846	14.156916197733247
1.1602274896797582	6.540723707977481
1.1640949146453576	106.96992006780822
1.1679752310275089	364.3552274246703
1.1718684817976006	175.14673280018994
1.1757747100702594	54.425764782937925
1.1796939591038271	228.42010778675214
1.1836262723008397	217.76652718637365
1.1875716932085094	150.0013652553003
1.1915302655192046	201.8260327804729
1.1955020330709352	478.7103555842867
1.1994870398478386	1184.7452851897378
1.2034853299806647	1522.7620630992
1.207496947747267	1393.750382895865
1.2115219375730912	1735.729323195328
1.2155603440316685	1984.5710406405517
1.2196122118451074	2700.562997888962
1.2236775858845912	3643.243332579209
1.2277565111708733	9168.88539015885
1.2318490328747762	14819.35266062856
1.2359551963176922	19908.401474615624
1.2400750469720847	36243.857186554495
1.2442086304619917	57974.69926005011
1.248355992563532	71723.5049556539
1.2525171792054102	73634.07047006112
1.2566922364694284	88573.00361339358
1.2608812105909932	123870.91450483481
1.2650841479596302	156738.4541199147
1.2693010951194956	186862.8242172766
1.273532098769894	151740.65208326283
1.2777772057657937	85074.12985544998
1.2820364631183463	50653.971936401365
1.2863099179954076	26578.17489375615
1.2905976177220593	17679.445122252015
1.2948996097811327	16013.587682631978
1.2992159418137368	14443.329479021535
1.3035466616197826	11251.447956878856
1.3078918171585154	8235.471519656268
1.3122514565490437	3721.9720575268884
1.3166256280708741	3711.53470716403
1.3210143801644436	4121.090172583028
1.3254177614316587	3264.3302844477494
1.329835820636431	1488.0636761550286
1.3342686067052192	621.639435818524
1.33871616872757	283.63866083022356
1.343178555956662	68.18710153472078
1.347655817809851	10.5519753764924
1.352148003869217	4.494521538351148
1.3566551638821147	2.134337399439618
1.3611773477617217	0.4377292847935039
1.3657146055875944	0.3528626630247354
1.3702669876062197	0.3832003617022082
1.3748345442315741	1.7452227936466533
1.3794173260456792	2.722978864068137
1.384015383799165	0.731261163874903
1.388628768411829	1.0344147386260285
1.3932575309732018	1.877843965980417
1.3979017227431125	3.1231181404774624
1.4025613951522564	8.914291399834553
1.407236599802764	9.107819080574144
1.4119273884687735	13.060205833710043
1.4166338130970026	10.65224649588148
1.4213559258073263	12.074619313946224
1.4260937788933508	23.048158383584305
1.4308474248229952	27.077125556720414
1.4356169162390722	35.91816940178534
1.4404023059598692	154.1403420107139
1.4452036469797356	277.9869320867247
1.450020992469668	313.1103441347046
1.4548543957779003	268.1905454544651
1.4597039104304934	271.9292763303198
1.4645695901319284	255.1097171494174
1.469451488765702	101.08319436126166
1.4743496603949209	17.224780758055072
1.479264159262904	13.181905671603579
1.4841950397937806	16.308579371414506
1.4891423565930935	25.539783557895554
1.4941061644484037	43.90681594510433
1.4990865183298985	57.50093497912015
1.5040834733909982	46.76363264814316
1.5090970849689684	65.93818131448054
1.5141274085855316	19.909649937759358
1.5191744999474837	34.52800124123675
1.5242384149473087	112.5891629701191
1.5293192096638	300.3060132332636
1.5344169403626793	272.7589509964672
1.5395316634972218	437.0801401759315
1.544663435708879	551.1345619480186
1.5498123138279087	996.9164951344172
1.554978354874002	2011.5080159901747
1.5601616160569156	2726.7964812331397
1.5653621547771055	6648.868480989672
1.5705800286263625	16504.582024916726
1.5758152953884506	24333.481052508672
1.5810680130397454	30743.566351134945
1.5863382397498782	38707.59000013684
1.5916260338823778	56998.10780449263
1.5969314539953192	53730.041167372605
1.6022545588419705	35798.646367901485
1.6075954073714436	20067.552869019906
1.6129540587293487	9031.413677365672
1.6183305722584467	3554.05257143236
1.6237250074993084	1883.4852118895374
1.6291374241909726	1130.0198083012524
1.6345678822716092	864.963558732581
1.6400164418791816	336.70527193174655
1.6454831633521123	375.65033881397113
1.6509681072299527	356.031217670798
1.6564713342540527	933.9974783078944
1.6619929053682332	1799.026701985198
1.6675328817194608	734.2412655108236
1.6730913246585257	142.25619807093503
1.6786682957407209	727.6423741778226
1.6842638567265233	1018.477037059843
1.6898780695822784	480.6786468574756
1.6955109964808863	71.23009757365205
1.7011626998024894	80.58410348539067
1.7068332421351646	300.4692333257527
1.7125226862756153	450.738474353563
1.7182310952298672	730.9960398049982
1.7239585322139668	652.6423184469924
1.7297050606546804	151.95709030669224
1.7354707441901962	259.0397586472911
1.7412556466708302	518.0470419134913
1.747059832159733	822.5329544071672
1.752883364933599	1098.1179477317785
1.7587263094833776	683.3554405232861
1.7645887305149892	472.62559454851146
1.7704706929500391	416.38171969234173
1.7763722619265396	894.7487609897635
1.7822935027996283	868.2915408523163
1.7882344811422937	468.99602584957506
1.7941952627461015	224.9130227221579
1.8001759136219222	153.5946000622122
1.8061765000006618	147.06299557569713
1.8121970883339975	165.7816089069628
1.818237745295111	286.757287558981
1.8242985377794283	500.6898249217463
1.8303795329053596	186.2711096987423
1.8364807980150446	40.19639102361915
1.8426024006750947	151.69279767867772
1.8487444086773455	229.98888887031617
1.8549068900396033	165.81665188795728
1.861089913006402	71.59040895415242
1.8672935460497566	25.126190733271393
1.873517857869923	21.55685816074676
1.879762917396156	196.46824827231703
1.8860287937874767	403.5661414150885
1.8923155564334353	462.36033395741197
1.8986232749548801	386.66890671027454
1.9049520192047298	142.96580547542519
1.9113018592687456	108.76146208311255
1.9176728654663082	60.107374458786026
1.9240651083511964	76.29774342199619
1.9304786587123668	27.046853147517464
1.9369135875747419	4.077646735405169
1.9433699661999908	5.1499810148714635
1.9498478660873244	4.899320512664588
1.9563473589742824	25.435621810079557
1.9628685168375302	117.7164707147693
1.9694114118936552	194.85993240256775
1.9759761165999676	290.1060182359494
1.9825627036553009	334.68460516635673
1.9891712460008188	407.3670424826536
1.9958018168208218	572.4597713897039
2.002454489543558	588.2374571149547
2.0091293378420367	444.03340361389905
2.0158264356348434	339.3211605558372
2.02254585708696	346.46142390978315
2.029287676610583	754.1245688168046
2.036051968865952	870.0974966058548
2.042838808762172	1049.8098118396497
2.049648271458046	1299.1389411220775
2.0564804323629065	1689.1660582614454
2.0633353671374497	2189.6936066511716
2.0702131516945745	2825.4536267022945
2.0771138622002234	2600.9820768506574
2.084037575074224	2535.946824962101
2.0909843669911385	2494.3789338384286
2.097954314881109	2417.0497775238864
2.1049474959307126	2694.060787596025
2.1119639875838154	2980.860037251482
2.1190038675424283	2739.5375155898428
2.12606721376757	2664.5418764299993
2.1331541044801288	2491.902528637938
2.140264618161729	2041.959827686147
2.147398833555602	1832.893143420869
2.154556829667454	1585.5111562816098
2.1617386857663456	1099.0084308465025
2.1689444813855667	1042.2824770392488
2.176174296323519	997.9441829438264
2.1834282106445975	884.1666918987057
2.19070630468008	420.31223483124114
2.1980086590290138	71.82480236165597
2.2053353545591103	56.574430398274146
2.2126864724076407	128.05308091172495
2.220062093982333	72.92619164072356
2.2274623009622747	40.9466617112483
2.2348871752988155	28.026302959182505
2.2423367992164787	13.615214164998026
2.2498112552138667	8.09857620161277
2.25731062606458	7.041024055403106
2.2648349948181288	2.5057009539064645
2.272384444800856	5.335366294476865
2.2799590596168593	13.329920357948367
2.2875589231489153	7.983169960228371
2.295184119559412	6.228378799871273
2.302834733291277	25.79656281274824
2.3105108490689146	54.52698516215157
2.3182125518991445	29.487757250700692
2.325939927072142	6.568220158900537
2.3336930601623824	5.97184643330827
2.341472037029591	2.6039456550362257
2.3492769438196897	3.5352473291240853
2.3571078669657557	33.94228627559804
