#wavelength (micron)	surface_flux (erg / (cm2 micron s))
0.40133895199999997	0.015479918952316565
0.40267674850666674	0.013852363778191486
0.40401900433502225	0.002343313628975502
0.4053657343494724	0.0025999989296267368
0.4067169534639707	0.022807185624715627
0.40807267664218394	0.11479189400371466
0.4094329188976579	0.3920399562621236
0.41079769529398347	1.0336585123546833
0.41216702094496344	2.2850796622160527
0.41354091101477997	4.427249379262058
0.4149193807181627	7.660385836358032
0.41630244532055655	11.9096338793275
0.41769012013829176	15.477945985659774
0.41908242053875283	11.894421849825381
0.4204793619405487	4.147560708296173
0.42188095981368384	12.171269600600036
0.42328722967972954	44.11420531723161
0.4246981871119953	77.86286494810076
0.42611384773570193	106.62149134487625
0.4275342272281543	136.9835773172265
0.4289593413189149	170.8106362234399
0.43038920578997797	208.9247900138263
0.4318238364759446	251.48521538771593
0.43326324926419774	299.96512324282287
0.4347074600950785	354.28161971719817
0.4361564849620621	414.1768774423453
0.43761033991193565	479.937291443277
0.4390690410449755	551.1301732417835
0.44053260451512544	632.7562126702111
0.4420010465301759	725.9170827683618
0.44347438335194317	829.0399666683296
0.4449526312964497	945.9199502645846
0.44643580673410455	1067.094395128435
0.44792392608988496	1194.7818218163302
0.4494170058435179	1332.1562846389704
0.450915062529663	1492.3834722542874
0.4524181127380953	1658.4384199955325
0.45392617311388894	1657.685047436914
0.45543926035760196	1230.995451472216
0.45695739122546064	945.2067024208005
0.4584805825295456	391.19864694710475
0.46000885113797746	200.34375343571458
0.46154221397510403	173.37164206067425
0.4630806880216877	140.9225759427944
0.4646242903150934	111.86802709715536
0.4661730379494771	88.99057243587674
0.4677269480759754	70.5892157780755
0.4692860379028953	54.515595304179875
0.47085032469590504	41.06965639649108
0.4724198257782247	30.443507111927484
0.47399455853081884	22.404371854711975
0.4755745403925883	16.69843008490451
0.4771597888605636	12.704170136374687
0.47875032149009894	9.984989606245657
0.4803461558950659	7.740427485136169
0.48194730974804956	5.783621127385587
0.48355380078054305	4.244137960328854
0.4851656467831449	3.127692153964236
0.48678286560575545	2.43559883172997
0.4884054751577746	1.9949376345000533
0.4900334934083006	1.6737186575423448
0.4916669383863283	1.4371514866714665
0.4933058281809494	1.2451923428122018
0.4949501809415526	1.0868091422670838
0.4966000148780246	0.9528548082958423
0.4982553482609513	0.8179441115856378
0.4999161994218212	0.6972054349971648
0.5015825867532273	0.5971898955081231
0.5032545287090715	0.5227661126075565
0.5049320438047684	0.4962187306156283
0.506615150617451	0.5219441084755259
0.5083038677861758	0.5423237553601188
0.5099982140121297	0.562248845553247
0.5116982080588369	0.5837460805145711
0.5134038687523664	0.6082954738081447
0.515115214981541	0.6351233846231287
0.5168322656981462	0.6604455744418497
0.5185550399171401	0.6955679746597624
0.5202835567168639	0.7278586880652838
0.5220178352392535	0.7575688491336133
0.5237578946900511	0.7869036621555892
0.525503754339018	0.8186183302942719
0.527255433520148	0.8508562379605543
0.5290129516318819	0.8840463154253934
0.5307763281373216	0.9202523414396285
0.532545582564446	0.9591067487525553
0.5343207345063276	0.9982821950211401
0.5361018036213486	1.0362019400110998
0.5378888096334199	1.0771824461491377
0.5396817723321979	1.1180873027056148
0.5414807115733054	1.1574262545267942
0.5432856472785497	1.2064866563731569
0.545096599436145	1.241215708264713
0.5469135881009322	1.2702676626007066
0.5487366333946019	1.3384091031711514
0.5505657555059172	1.4017698118644943
0.5524009746909371	1.4598426778593738
0.5542423112732402	1.5119587390755156
0.556089785644151	1.566269405817561
0.557943418262965	1.620015103684502
0.5598032296571749	1.6695415372884115
0.5616692404226988	1.7143920982540855
0.5635414712241079	1.7576654988208522
0.5654199427948549	1.791231817062945
0.5673046759375044	1.777993509739942
0.569195691523963	1.755764927393233
0.5710930104957095	1.7839171013224875
0.5729966538640286	1.8104308650802512
0.5749066427102419	1.7800260350453885
0.576822998185943	1.7099278448549315
0.5787457415132294	1.6438421753284735
0.5806748939849402	1.5361419612274538
0.58261047696489	1.3925879876485676
0.5845525118881064	1.202071481215468
0.5865010202610669	0.8117851236611876
0.588456023661937	0.29324646405976196
0.5904175437408102	0.2692238589776088
0.5923856022199464	0.9220006540008462
0.5943602208940129	1.7537493534779252
0.5963414216303263	2.5617447203385098
0.598329226369094	3.4292297159801652
0.6003236571236578	4.487976022387709
0.6023247359807368	5.725755342326484
0.6043324851006725	7.14577335119907
0.6063469267176749	8.763415180327584
0.6083680831400672	10.577708734616559
0.610395976750534	12.625443409179834
0.6124306300063692	14.897278973910554
0.6144720654397238	17.5315863745647
0.6165203056578563	20.450758147051218
0.6185753733433824	23.77533808552225
0.6206372912545272	27.47913990058178
0.6227060822253756	31.57531088343774
0.6247817691661269	36.00340799236072
0.6268643750633474	40.27031755344753
0.6289539229802253	45.62707330731703
0.6310504360568261	52.291145050833784
0.6331539375103489	58.83115601789951
0.6352644506353834	67.45951631368455
0.6373819988041681	74.99450270632813
0.6395066054668487	81.91488507872732
0.6416382941517382	92.96847057243065
0.6437770884655775	101.30830040243289
0.6459230120937961	99.3102705103585
0.6480760888007754	110.59510552100602
0.6502363424301114	137.92254076560675
0.6524037969048785	158.93705595600665
0.6545784762278948	177.05287144840966
0.6567604044819878	196.98320895509383
0.6589496058302612	226.65061148538305
0.6611461045163621	255.18763496640958
0.66334992486475	292.6598338001703
0.6655610912809659	330.69647001691834
0.6677796282519025	379.8176694263135
0.6700055603460756	417.3029381274552
0.6722389122138959	470.6806613471159
0.6744797085879423	543.6933139288337
0.6767279742832354	597.926127407162
0.6789837341975129	644.6318380909134
0.6812470133115047	684.6433891623373
0.6835178366892097	710.6805170363725
0.6857962294781739	708.3230438698938
0.6880822169097679	679.5888288096759
0.6903758242994671	608.2915643584782
0.6926770770471321	485.4818055519633
0.6949860006372892	484.9217629447741
0.6973026206394136	556.1694654865337
0.6996269627082117	546.4740383421902
0.7019590525839058	490.8717434860494
0.7042989160925188	532.367702470692
0.7066465791461606	587.4603107484947
0.7090020677433145	606.4894587500652
0.7113654079691256	633.6832248945407
0.7137366259956894	637.4675412071231
0.7161157480823418	506.7978553189297
0.7185028005759496	401.97382261063007
0.7208978099112028	441.2964593315215
0.7233008026109069	517.7565392002372
0.7257118052862767	522.0242929358285
0.728130844637231	553.1174382637378
0.7305579474526884	503.83570265854945
0.7329931406108642	493.25347976172753
0.7354364510795671	500.6822922231468
0.7378879059164991	602.6884959746152
0.7403475322695541	754.245039316004
0.7428153573771193	852.9662140766535
0.7452914085683765	920.3881835218947
0.7477757132636044	997.4345736679248
0.7502682989744831	1013.6247956443877
0.7527691933043982	1037.8869901327676
0.7552784239487462	1066.0981420822716
0.7577960186952422	1088.37512662705
0.7603220054242263	1061.3041449702046
0.7628564121089738	874.8607035854186
0.7653992668160038	442.7222848414792
0.7679505977053904	241.75843271291583
0.7705104330310751	392.16633555980167
0.7730788011411788	821.682222561044
0.7756557304783162	1219.824885674055
0.7782412495799106	1443.7924171836135
0.7808353870785104	1576.1835046032227
0.7834381717021055	1846.8600070815069
0.7860496322744459	1947.581280720771
0.7886697977153608	2203.906057599039
0.7912986970410787	2657.4061144786792
0.793936359364549	2736.1735143102883
0.7965828138957642	2839.526323207009
0.7992380899420836	3237.420348669194
0.8019022169085571	3713.6861191147727
0.8045752242982523	4088.8706116173234
0.80725714171258	4186.848164273542
0.809947998851622	3531.86184113138
0.8126478255144608	2725.2145175382734
0.8153566515995091	2340.525045943991
0.8180745071048409	3110.2594110034556
0.8208014221285237	4548.212713607744
0.8235374268689521	4827.074194675681
0.8262825516251822	5829.412173339412
0.8290368267972661	5761.685801049489
0.8318002828865904	5607.693923147959
0.8345729504962124	5235.04804768258
0.8373548603311998	5499.305249255648
0.8401460431989706	7610.739001155281
0.8429465300096338	8127.450023002428
0.8457563517763327	9190.399462604199
0.8485755396155872	10540.664711731668
0.8514041247476393	11414.557990262174
0.8542421384967981	12945.026114694565
0.8570896122917875	14841.849198605512
0.8599465776660935	16519.790599557273
0.8628130662583139	17770.13547128232
0.8656891098125085	18806.750746021808
0.8685747401785502	19433.740604644157
0.8714699893124788	19970.52458062077
0.8743748892768537	21037.671200573735
0.8772894722411099	22077.452481527474
0.8802137704819137	21920.088729833256
0.8831478163835201	20567.5707690463
0.8860916424381319	15787.142221192717
0.8890452812462591	7602.745822651665
0.89200876551708	2885.785386372933
0.8949821280688037	4457.390646340828
0.8979654018290332	5155.746809529093
0.90095861983513	4962.1776737420705
0.9039618152345804	9570.837419113284
0.9069750212853626	10052.191278969864
0.9099982713563137	11959.474427594641
0.9130315989275016	16052.049660717557
0.9160750375905932	16732.83636894925
0.9191286210492287	26196.096658005597
0.9221923831193928	43642.132580605015
0.9252663577297908	36507.659045104345
0.9283505789222235	13172.33789173999
0.9314450808519644	2474.573400032713
0.9345498977881376	2060.6522667450577
0.9376650641140981	5102.738746499033
0.940790614327812	11840.66562243039
0.9439265830422381	14832.79680671133
0.9470730049857122	15106.791256119328
0.9502299150023314	8873.77335917177
0.9533973480523392	8275.24279496085
0.9565753392125138	9774.801198524083
0.9597639236765556	8781.300771282335
0.9629631367554774	5665.08930998756
0.9661730138779958	16630.621662959682
0.9693935905909224	33516.72012467051
0.972624902559559	38819.38499675243
0.9758669855680909	34158.8416708113
0.9791198755199847	34587.92823036758
0.9823836084383848	30044.157716049966
0.9856582204665127	42204.45508507564
0.9889437478680678	57665.05655470607
0.9922402270276282	54719.40532018468
0.9955476944510537	52950.00962564156
0.9988661867658906	56190.77461510055
1.002195740721777	53456.652050898345
1.0055363931908496	65617.55205569598
1.0088881811681525	79801.42938332597
1.0122511417720463	94373.25447147361
1.01562531224462	72402.8534882975
1.019010729952102	52938.71932741084
1.0224074323852759	59473.793578497585
1.0258154571598936	92237.79121213038
1.0292348420170931	111648.88890024924
1.0326656248238169	100497.0812784402
1.0361078435732296	79431.09823055123
1.0395615363851405	126980.47682430466
1.0430267415064245	213401.5396831929
1.0465034973114462	244506.79806354668
1.0499918423024843	223737.49729804022
1.0534918151101593	304377.4342340064
1.05700345449386	434297.1700627279
1.0605267993421728	502299.2098050156
1.0640618886733135	532134.4465859727
1.067608761635558	523008.3466465879
1.0711674575076766	520249.25756190665
1.0747380156993689	470423.2340161757
1.0783204757517002	393221.8622271433
1.0819148773375393	373943.1752064241
1.085521260261998	335516.43688940036
1.0891396644628712	284281.9865342347
1.092770130011081	196026.44752825025
1.0964126971111179	102036.38536613938
1.1000674061014886	73415.00481945377
1.10373429745516	58214.14098496669
1.1074134117800107	18048.012182188166
1.1111047898192774	5816.709474436344
1.1148084724520084	4101.981774638096
1.1185245006935154	2814.370826407836
1.1222529156958272	3391.602644991398
1.1259937587481466	3678.235630840693
1.1297470712773072	3451.679542369555
1.1335128948482316	1442.4894759803249
1.1372912711643925	3039.046074977471
1.1410822420682738	6871.937819998314
1.1448858495418348	5459.224459271784
1.1487021357069744	1916.184100572256
1.1525311428259977	541.7642495578145
1.1563729133020846	144.47189181858056
1.1602274896797582	92.45073827365636
1.1640949146453576	940.9991307904427
1.1679752310275089	2986.2047008600207
1.1718684817976006	1531.3097232864834
1.1757747100702594	473.1130292061159
1.1796939591038271	1829.82994828303
1.1836262723008397	1988.9314620209784
1.1875716932085094	1908.8435399689827
1.1915302655192046	2369.3695349754994
1.1955020330709352	4929.330604320166
1.1994870398478386	12234.092343387643
1.2034853299806647	17350.7274419033
1.207496947747267	17490.895658769517
1.2115219375730912	22311.93768459075
1.2155603440316685	25331.3311194387
1.2196122118451074	34900.28145311118
1.2236775858845912	47560.80892279111
1.2277565111708733	95946.55320792054
1.2318490328747762	146710.7751943372
1.2359551963176922	187122.41494497075
1.2400750469720847	292943.507203216
1.2442086304619917	425967.03317079076
1.248355992563532	508911.62459709996
1.2525171792054102	537373.3928718523
1.2566922364694284	635126.681326278
1.2608812105909932	769201.2425542539
1.2650841479596302	847863.7054126093
1.2693010951194956	921757.0584235017
1.273532098769894	817463.7276602867
1.2777772057657937	548926.9715909747
1.2820364631183463	353451.4308413103
1.2863099179954076	198934.2176548295
1.2905976177220593	147775.6899599184
1.2948996097811327	128746.43952626461
1.2992159418137368	120543.46005354638
1.3035466616197826	92768.38271434279
1.3078918171585154	63117.88657104808
1.3122514565490437	28316.3636771079
1.3166256280708741	29849.39754224527
1.3210143801644436	32537.782165285542
1.3254177614316587	24469.275207724415
1.329835820636431	10874.530508944155
1.3342686067052192	3880.8186219055933
1.33871616872757	1654.9185039522379
1.343178555956662	541.4177921868591
1.347655817809851	105.30419210426393
1.352148003869217	56.56839732252949
1.3566551638821147	31.219462581112364
1.3611773477617217	8.384323094677734
1.3657146055875944	6.389368500619751
1.3702669876062197	8.583113791896608
1.3748345442315741	28.238111572249316
1.3794173260456792	42.48760553073621
1.384015383799165	14.362336466737423
1.388628768411829	16.948578230736107
1.3932575309732018	29.782385871131087
1.3979017227431125	41.443933143613336
1.4025613951522564	114.43357255115728
1.407236599802764	116.12918446626564
1.4119273884687735	141.66590586966186
1.4166338130970026	104.19756053691522
1.4213559258073263	116.6478286145864
1.4260937788933508	223.7331156546383
1.4308474248229952	262.00552485902745
1.4356169162390722	335.1845759969947
1.4404023059598692	1233.915415764694
1.4452036469797356	2009.880870015738
1.450020992469668	1914.4029723212193
1.4548543957779003	1568.9783510662094
1.4597039104304934	1673.486696147403
1.4645695901319284	1895.7939269063847
1.469451488765702	890.2116546120673
1.4743496603949209	170.56347947126264
1.479264159262904	151.2194646556471
1.4841950397937806	204.01745244126977
1.4891423565930935	262.6635800642528
1.4941061644484037	478.39720134014465
1.4990865183298985	827.988830673267
1.5040834733909982	686.395339558755
1.5090970849689684	874.972679560674
1.5141274085855316	293.5824444037002
1.5191744999474837	481.79566534483655
1.5242384149473087	1279.7212420304895
1.5293192096638	3029.4011651362994
1.5344169403626793	2878.269211681621
1.5395316634972218	4745.724431065501
1.544663435708879	5767.138682078287
1.5498123138279087	9795.402222681898
1.554978354874002	18552.56853706376
1.5601616160569156	20688.64436796324
1.5653621547771055	41039.756972556694
1.5705800286263625	91618.56378792538
1.5758152953884506	129384.94952813047
1.5810680130397454	157168.25093718976
1.5863382397498782	183198.237659805
1.5916260338823778	245087.37372913607
1.5969314539953192	215502.45130509554
1.6022545588419705	132146.2803860194
1.6075954073714436	72937.53401310058
1.6129540587293487	34791.58389937578
1.6183305722584467	15761.709178877532
1.6237250074993084	9042.821259121889
1.6291374241909726	6480.956849777843
1.6345678822716092	5121.511886484214
1.6400164418791816	2164.6402098657704
1.6454831633521123	2884.7194254999013
1.6509681072299527	3602.7499656688715
1.6564713342540527	5809.282891386858
1.6619929053682332	8947.657091046683
1.6675328817194608	3978.8067203892
1.6730913246585257	813.8888756194835
1.6786682957407209	3425.4540294670473
1.6842638567265233	5223.187972183735
1.6898780695822784	2892.291046308885
1.6955109964808863	561.1138904427563
1.7011626998024894	692.503147197149
1.7068332421351646	2015.861828373035
1.7125226862756153	2643.314206080835
1.7182310952298672	3932.9687570260207
1.7239585322139668	3623.4674586618694
1.7297050606546804	1172.105161959141
1.7354707441901962	1811.3379069983944
1.7412556466708302	2839.631044780479
1.747059832159733	4662.85289245149
1.752883364933599	6459.817438563721
1.7587263094833776	4100.809971025126
1.7645887305149892	2766.5746620030995
1.7704706929500391	2408.558800886076
1.7763722619265396	4903.131891049262
1.7822935027996283	4653.91353344941
1.7882344811422937	2915.541124181991
1.7941952627461015	1504.7055638977972
1.8001759136219222	1112.9222302292262
1.8061765000006618	1044.8944344481547
1.8121970883339975	1232.7594736173598
1.818237745295111	2148.5520618843284
1.8242985377794283	3441.2622140239964
1.8303795329053596	1305.8149212179433
1.8364807980150446	329.43711901242636
1.8426024006750947	1073.9176441340153
1.8487444086773455	1795.8586376827466
1.8549068900396033	1453.6318070999216
1.861089913006402	572.147860693954
1.8672935460497566	252.20319444894693
1.873517857869923	234.28648804519761
1.879762917396156	1520.7442465277093
1.8860287937874767	2921.364379600404
1.8923155564334353	3601.125519408513
1.8986232749548801	3149.573189764586
1.9049520192047298	1218.2394890890864
1.9113018592687456	997.3798757006588
1.9176728654663082	462.44232826536205
1.9240651083511964	492.19016392657903
1.9304786587123668	208.55848788569907
1.9369135875747419	51.718364613177414
1.9433699661999908	74.69663983261907
1.9498478660873244	64.96695399024706
1.9563473589742824	203.46466650621426
1.9628685168375302	873.2681578714474
1.9694114118936552	1474.6162746568302
1.9759761165999676	2128.325671209084
1.9825627036553009	2557.2900763768284
1.9891712460008188	3063.199227603712
1.9958018168208218	3909.7860489683503
2.002454489543558	4036.107943201456
2.0091293378420367	3329.517057546603
2.0158264356348434	2573.9976288916073
2.02254585708696	2163.3822103724633
2.029287676610583	4341.515341802505
2.036051968865952	5401.01932143784
2.042838808762172	6784.423837317205
2.049648271458046	8122.221139325211
2.0564804323629065	10398.189383646233
2.0633353671374497	14364.76892359898
2.0702131516945745	19738.35238752182
2.0771138622002234	18295.358576498584
2.084037575074224	17416.170976722613
2.0909843669911385	17245.581329825214
2.097954314881109	17328.097737171785
2.1049474959307126	19959.341699035856
2.1119639875838154	21966.30727133477
2.1190038675424283	19657.383749040036
2.12606721376757	18820.912026361504
2.1331541044801288	17595.323672233673
2.140264618161729	14161.800477229523
2.147398833555602	12055.49750559957
2.154556829667454	10271.540342584038
2.1617386857663456	7208.2832933953305
2.1689444813855667	6727.7988489240915
2.176174296323519	6182.782081376541
2.1834282106445975	5328.67175364146
2.19070630468008	2445.8197610925886
2.1980086590290138	422.03975007730935
2.2053353545591103	381.9253482492829
2.2126864724076407	927.3311635583403
2.220062093982333	595.5248667548132
2.2274623009622747	297.9503876915516
2.2348871752988155	197.25138464953332
2.2423367992164787	115.27561305383912
2.2498112552138667	74.34773345555321
2.25731062606458	61.28356972685066
2.2648349948181288	28.919395207463687
2.272384444800856	53.25004637719266
2.2799590596168593	119.55016550623019
2.2875589231489153	81.11212579777158
2.295184119559412	66.87487198111613
2.302834733291277	250.52137104818982
2.3105108490689146	488.96452377846316
2.3182125518991445	245.71983556377984
2.325939927072142	63.56529036510303
2.3336930601623824	61.731803717332575
2.341472037029591	22.05518265905202
2.3492769438196897	35.353957976185136
2.3571078669657557	267.19955878615195
2.364964893188975	433.55159374831504
