#wavelength (micron)	surface_flux (erg / (cm2 micron s))
0.40133895199999997	0.0002598748521498679
0.40267674850666674	0.00039757930478726374
0.40401900433502225	0.0004028990893165094
0.4053657343494724	0.00047363931632526035
0.4067169534639707	0.0006918718695619461
0.40807267664218394	0.0013984037479234292
0.4094329188976579	0.002634425129972764
0.41079769529398347	0.004357698347344394
0.41216702094496344	0.0065161084918026494
0.41354091101477997	0.009203174319996855
0.4149193807181627	0.01230035498810941
0.41630244532055655	0.015774935438664123
0.41769012013829176	0.020115897130985695
0.41908242053875283	0.028953472766475252
0.4204793619405487	0.04273600983690108
0.42188095981368384	0.04611330334300643
0.42328722967972954	0.04783286224958372
0.4246981871119953	0.05586039425864049
0.42611384773570193	0.06675817974861412
0.4275342272281543	0.0792629003893007
0.4289593413189149	0.09290327874959683
0.43038920578997797	0.10794329331549449
0.4318238364759446	0.12492638581598217
0.43326324926419774	0.14383867553631022
0.4347074600950785	0.1647112552948612
0.4361564849620621	0.18739921886979463
0.43761033991193565	0.21180981221840975
0.4390690410449755	0.23742962659307948
0.44053260451512544	0.2651259856630568
0.4420010465301759	0.29093026051739057
0.44347438335194317	0.32498435053428565
0.4449526312964497	0.37092714593399756
0.44643580673410455	0.4183470495794433
0.44792392608988496	0.4745953246782795
0.4494170058435179	0.53915620508356
0.450915062529663	0.6110897105440548
0.4524181127380953	0.6907639568318441
0.45392617311388894	0.7881276852238056
0.45543926035760196	0.9195233222027269
0.45695739122546064	1.0406644349226857
0.4584805825295456	1.1919384182331587
0.46000885113797746	1.3584693866442135
0.46154221397510403	1.5266532112637243
0.4630806880216877	1.7129142554465313
0.4646242903150934	1.9079463936125876
0.4661730379494771	2.0939716370689845
0.4677269480759754	2.2774162323078686
0.4692860379028953	2.4416535881535126
0.47085032469590504	2.5924348698802935
0.4724198257782247	2.7111993298872963
0.47399455853081884	2.7802036659438447
0.4755745403925883	2.829654578697468
0.4771597888605636	2.8770073686135293
0.47875032149009894	2.947953173394248
0.4803461558950659	3.0248241197226653
0.48194730974804956	3.1026714888135003
0.48355380078054305	3.1632351593178445
0.4851656467831449	3.2073718097160935
0.48678286560575545	3.294985209652368
0.4884054751577746	3.3815610472653916
0.4900334934083006	3.4492709966247506
0.4916669383863283	3.4835219151383896
0.4933058281809494	3.473717826818357
0.4949501809415526	3.4166542868897394
0.4966000148780246	3.2697979207886916
0.4982553482609513	2.9643326499499705
0.4999161994218212	2.588427854371589
0.5015825867532273	2.143327312153343
0.5032545287090715	1.7061557896578026
0.5049320438047684	1.5859923190870322
0.506615150617451	1.631094828289236
0.5083038677861758	1.6192551453341872
0.5099982140121297	1.6575126379215555
0.5116982080588369	1.7199033530475099
0.5134038687523664	1.8077492637362895
0.515115214981541	1.9201799712006093
0.5168322656981462	2.0453834046586965
0.5185550399171401	2.1628301973703965
0.5202835567168639	2.260342437930141
0.5220178352392535	2.3202393796801806
0.5237578946900511	2.339479726855779
0.525503754339018	2.3880214030116034
0.527255433520148	2.434698756192452
0.5290129516318819	2.4578370313581224
0.5307763281373216	2.4722652284791957
0.532545582564446	2.5003679522626605
0.5343207345063276	2.5270543830688172
0.5361018036213486	2.516420290294001
0.5378888096334199	2.474335619389282
0.5396817723321979	2.3833807155825197
0.5414807115733054	2.3202029664061548
0.5432856472785497	2.3996665847446517
0.545096599436145	2.465525947726928
0.5469135881009322	2.5079982066562216
0.5487366333946019	2.6160754087493174
0.5505657555059172	2.7277284887091255
0.5524009746909371	2.8526341198243683
0.5542423112732402	2.9739579053063108
0.556089785644151	3.080326207158378
0.557943418262965	3.1644336726259
0.5598032296571749	3.219608442990356
0.5616692404226988	3.2540034247260436
0.5635414712241079	3.2825086338042704
0.5654199427948549	3.255179089719452
0.5673046759375044	3.023333937749758
0.569195691523963	2.8345143181049335
0.5710930104957095	2.9856689285383493
0.5729966538640286	2.9992071227641204
0.5749066427102419	2.9552739733051516
0.576822998185943	2.9163542634393336
0.5787457415132294	2.8664541363907015
0.5806748939849402	2.7580198345397604
0.58261047696489	2.5864365361609165
0.5845525118881064	2.3038667429465907
0.5865010202610669	1.6102721801267506
0.588456023661937	0.6152231537126572
0.5904175437408102	0.5367895079378215
0.5923856022199464	1.5851262063956342
0.5943602208940129	2.483494498823364
0.5963414216303263	3.2367069805115807
0.598329226369094	4.2491264989786375
0.6003236571236578	5.673942499423243
0.6023247359807368	7.652649254061493
0.6043324851006725	10.143651350649336
0.6063469267176749	13.200659656449579
0.6083680831400672	16.870993836523827
0.610395976750534	21.181868253227222
0.6124306300063692	26.150631438944377
0.6144720654397238	31.74398559017498
0.6165203056578563	37.95367944074983
0.6185753733433824	44.95391900026852
0.6206372912545272	52.69214771994287
0.6227060822253756	60.668234509958076
0.6247817691661269	66.8824088165188
0.6268643750633474	72.69503081627231
0.6289539229802253	87.14455751456069
0.6310504360568261	104.25980963781936
0.6331539375103489	118.81683362516573
0.6352644506353834	138.98514274640203
0.6373819988041681	158.29529727144035
0.6395066054668487	178.82089843022698
0.6416382941517382	201.0894780937026
0.6437770884655775	207.57302469852135
0.6459230120937961	188.1026172448146
0.6480760888007754	199.34347657016852
0.6502363424301114	255.12876845260612
0.6524037969048785	293.86764638847757
0.6545784762278948	342.1995244207933
0.6567604044819878	378.8797038539901
0.6589496058302612	454.9839887361242
0.6611461045163621	567.5483859294648
0.66334992486475	690.7185800303716
0.6655610912809659	825.9501118102237
0.6677796282519025	964.467909818571
0.6700055603460756	1124.6330362130216
0.6722389122138959	1282.2210830248546
0.6744797085879423	1437.5716938675998
0.6767279742832354	1599.8283098984193
0.6789837341975129	1694.8941708113048
0.6812470133115047	1698.4524328187254
0.6835178366892097	1614.0643839614702
0.6857962294781739	1457.937579375279
0.6880822169097679	1216.001687395827
0.6903758242994671	823.9587546239222
0.6926770770471321	406.86578969472174
0.6949860006372892	344.53151857822473
0.6973026206394136	457.8630424528311
0.6996269627082117	423.4383389201451
0.7019590525839058	354.1493518633909
0.7042989160925188	354.9602940002602
0.7066465791461606	378.17748371338575
0.7090020677433145	390.7853965789969
0.7113654079691256	375.0403636939406
0.7137366259956894	289.66463420042146
0.7161157480823418	114.9420660901242
0.7185028005759496	23.38627090256508
0.7208978099112028	55.939933680588126
0.7233008026109069	70.62735153882618
0.7257118052862767	44.06265116302884
0.728130844637231	48.60933181534479
0.7305579474526884	49.97490015389527
0.7329931406108642	79.10045421048231
0.7354364510795671	123.18031428889245
0.7378879059164991	176.72874495578
0.7403475322695541	251.982970510506
0.7428153573771193	349.1837795815154
0.7452914085683765	455.2487276635105
0.7477757132636044	559.2188734693791
0.7502682989744831	653.6631406557653
0.7527691933043982	732.5534308752697
0.7552784239487462	786.1459831842272
0.7577960186952422	817.6402798663145
0.7603220054242263	828.0277629602286
0.7628564121089738	751.6987098967397
0.7653992668160038	547.593886331079
0.7679505977053904	468.0088129292837
0.7705104330310751	558.624883114944
0.7730788011411788	754.8551081214107
0.7756557304783162	939.7116596655533
0.7782412495799106	1081.6179908829013
0.7808353870785104	1168.1320422681977
0.7834381717021055	1156.5016769524852
0.7860496322744459	1084.8152968738682
0.7886697977153608	1087.0863498329838
0.7912986970410787	1289.2566031012084
0.793936359364549	1505.7476056089924
0.7965828138957642	1458.0410061733983
0.7992380899420836	1469.7744245479362
0.8019022169085571	1594.018279329302
0.8045752242982523	1652.0123088739247
0.80725714171258	1381.9056186973366
0.809947998851622	727.8323719737712
0.8126478255144608	239.39728011599792
0.8153566515995091	94.12910620308486
0.8180745071048409	234.67337059054276
0.8208014221285237	432.8352841105196
0.8235374268689521	402.2684047982184
0.8262825516251822	647.2549442748345
0.8290368267972661	600.829872663432
0.8318002828865904	508.21241628734236
0.8345729504962124	569.9656527349379
0.8373548603311998	827.798180122764
0.8401460431989706	1384.469371643483
0.8429465300096338	2186.1489353946126
0.8457563517763327	3181.08357864714
0.8485755396155872	4166.073698870392
0.8514041247476393	5104.394635583714
0.8542421384967981	6174.635044176614
0.8570896122917875	7409.59084357894
0.8599465776660935	8535.701616633907
0.8628130662583139	9279.018118099408
0.8656891098125085	9368.433625043195
0.8685747401785502	8535.539960200276
0.8714699893124788	7519.95041924286
0.8743748892768537	6770.386363312727
0.8772894722411099	5792.404227004336
0.8802137704819137	4272.222717194354
0.8831478163835201	2764.571610422311
0.8860916424381319	1157.4006889649722
0.8890452812462591	186.63520183641117
0.89200876551708	9.813254485626103
0.8949821280688037	1.1974410566323999
0.8979654018290332	0.9530078437349578
0.90095861983513	4.16041813319008
0.9039618152345804	21.05124056961219
0.9069750212853626	26.07029315965841
0.9099982713563137	22.909306626850192
0.9130315989275016	34.76724438980716
0.9160750375905932	45.85408103587629
0.9191286210492287	89.88132313962649
0.9221923831193928	127.24749234514414
0.9252663577297908	59.73027735298396
0.9283505789222235	7.301956201924755
0.9314450808519644	0.07736740007320213
0.9345498977881376	0.0004642706973011762
0.9376650641140981	0.12156528264452712
0.940790614327812	0.32131943815507535
0.9439265830422381	0.113878113638137
0.9470730049857122	0.012834669828212669
0.9502299150023314	0.03315713942719396
0.9533973480523392	0.04736653168431043
0.9565753392125138	0.06580152094930303
0.9597639236765556	0.1612404621563828
0.9629631367554774	0.6554693218043359
0.9661730138779958	4.898057531143655
0.9693935905909224	21.516170823935425
0.972624902559559	35.2578517852301
0.9758669855680909	33.44158027263451
0.9791198755199847	48.579331188962165
0.9823836084383848	76.01514634150526
0.9856582204665127	125.72906143464671
0.9889437478680678	200.2968255439878
0.9922402270276282	265.79009902006294
0.9955476944510537	272.6805168547494
0.9988661867658906	252.46608798491727
1.002195740721777	106.81809237221597
1.0055363931908496	39.0135431565138
1.0088881811681525	24.443627313333778
1.0122511417720463	19.13175236720845
1.01562531224462	9.794107257517801
1.019010729952102	3.602738679335569
1.0224074323852759	1.4782235795759253
1.0258154571598936	1.4404458760899927
1.0292348420170931	2.0916042181234986
1.0326656248238169	1.4032680844570524
1.0361078435732296	1.066462793366246
1.0395615363851405	2.076791558225286
1.0430267415064245	3.1019915247241743
1.0465034973114462	3.684167908544028
1.0499918423024843	4.134170368082135
1.0534918151101593	4.724167201627226
1.05700345449386	4.822626434229965
1.0605267993421728	4.230857321284486
1.0640618886733135	3.361511924960418
1.067608761635558	2.474417977298708
1.0711674575076766	1.744351993746504
1.0747380156993689	1.2583130156629343
1.0783204757517002	0.9544429686961854
1.0819148773375393	0.7341891874134997
1.085521260261998	0.5743135572739393
1.0891396644628712	0.45344298909443
1.092770130011081	0.3404377476686515
1.0964126971111179	0.2350452940382948
1.1000674061014886	0.15252313074423876
1.10373429745516	0.0888464117400877
1.1074134117800107	0.0397335458301109
1.1111047898192774	0.012132556511492868
1.1148084724520084	0.0027496649591459733
1.1185245006935154	0.00041200343356776934
1.1222529156958272	0.00012343951015210002
1.1259937587481466	0.00010208036480538056
1.1297470712773072	0.0004085888564966139
1.1335128948482316	0.0005022553537086045
1.1372912711643925	0.0010039084545334419
1.1410822420682738	0.002168909278994166
1.1448858495418348	0.0013041848427998986
1.1487021357069744	0.0004966514608885756
1.1525311428259977	0.00048433816506909095
1.1563729133020846	0.00027197051584419333
1.1602274896797582	0.0001384278665478988
1.1640949146453576	0.0006057440550472239
1.1679752310275089	0.0025556691590250804
1.1718684817976006	0.0018362061264017306
1.1757747100702594	0.0026385434070029727
1.1796939591038271	0.006303342387455634
1.1836262723008397	0.006803371121133548
1.1875716932085094	0.009620387385388347
1.1915302655192046	0.016268219319031815
1.1955020330709352	0.01999496773765871
1.1994870398478386	0.020448792560351776
1.2034853299806647	0.02277373293821781
1.207496947747267	0.025653557516402647
1.2115219375730912	0.031367294275342704
1.2155603440316685	0.04369712334026443
1.2196122118451074	0.06447610266096349
1.2236775858845912	0.10909433236066265
1.2277565111708733	0.1941830499746727
1.2318490328747762	0.2598722187126521
1.2359551963176922	0.38589026171528173
1.2400750469720847	0.7006788911381642
1.2442086304619917	1.3082691409071296
1.248355992563532	2.1115685360108563
1.2525171792054102	2.7976541224894897
1.2566922364694284	4.032835938035112
1.2608812105909932	6.815309736045585
1.2650841479596302	11.84992668133219
1.2693010951194956	16.929547847195025
1.273532098769894	17.648941121628212
1.2777772057657937	16.70302424107051
1.2820364631183463	14.105707418154845
1.2863099179954076	9.086317551670058
1.2905976177220593	5.437893548948283
1.2948996097811327	4.404050780212538
1.2992159418137368	4.071676518693589
1.3035466616197826	3.221428267934978
1.3078918171585154	2.8920823918479934
1.3122514565490437	2.2723350855549147
1.3166256280708741	1.3727779384359247
1.3210143801644436	1.237222134579816
1.3254177614316587	1.5754107702067048
1.329835820636431	0.8526426025713595
1.3342686067052192	0.22762359629567497
1.33871616872757	0.1039023425326169
1.343178555956662	0.015035595866933312
1.347655817809851	0.0008748865446543224
1.352148003869217	6.957920361192499e-05
1.3566551638821147	5.055661464836059e-06
1.3611773477617217	8.024789427638426e-07
1.3657146055875944	8.597293101909255e-07
1.3702669876062197	1.5789175383735196e-06
1.3748345442315741	4.6399527466811466e-06
1.3794173260456792	4.183305390897874e-06
1.384015383799165	1.4663412092263047e-06
1.388628768411829	7.057044849721655e-06
1.3932575309732018	1.0157123412511612e-05
1.3979017227431125	1.462424071839146e-05
1.4025613951522564	3.860865076452251e-05
1.407236599802764	4.9046244249126544e-05
1.4119273884687735	0.00013848507818429531
1.4166338130970026	0.00024943070651641176
1.4213559258073263	0.0005417225868833571
1.4260937788933508	0.0009115356932199744
1.4308474248229952	0.0014804529344192943
1.4356169162390722	0.0031128759992769864
1.4404023059598692	0.003529824507763299
1.4452036469797356	0.010823821191639639
1.450020992469668	0.0668659962679768
1.4548543957779003	0.2167555700034502
1.4597039104304934	0.28296652784992943
1.4645695901319284	0.11147297776984087
1.469451488765702	0.021122184693865887
1.4743496603949209	0.005491376669743724
1.479264159262904	0.0034420854779696405
1.4841950397937806	0.0017407202462623875
1.4891423565930935	0.0007846174875868842
1.4941061644484037	0.000338857496088727
1.4990865183298985	0.0004873269004503082
1.5040834733909982	0.002056110347401584
1.5090970849689684	0.0021882154221388385
1.5141274085855316	0.000371507820642803
1.5191744999474837	0.0016277903676936328
1.5242384149473087	0.006838744918454005
1.5293192096638	0.02276022929290333
1.5344169403626793	0.029530660234978762
1.5395316634972218	0.07179542846413565
1.544663435708879	0.308897835196849
1.5498123138279087	1.3131930275491346
1.554978354874002	5.179409604331663
1.5601616160569156	15.150961083255426
1.5653621547771055	35.83157821727571
1.5705800286263625	66.29548321231225
1.5758152953884506	91.17402202541777
1.5810680130397454	109.67797983896641
1.5863382397498782	126.2916197346647
1.5916260338823778	142.3089161338058
1.5969314539953192	148.5080943537194
1.6022545588419705	128.83366410748033
1.6075954073714436	91.01456313486787
1.6129540587293487	50.585490850601296
1.6183305722584467	20.01960027739781
1.6237250074993084	4.871683288507582
1.6291374241909726	0.8114298951855684
1.6345678822716092	0.14418278838960336
1.6400164418791816	0.03680732234449204
1.6454831633521123	0.021106701862115957
1.6509681072299527	0.01778121823969965
1.6564713342540527	0.1725807993419335
1.6619929053682332	0.3518373547182402
1.6675328817194608	0.12496217201531265
1.6730913246585257	0.11288282869487107
1.6786682957407209	0.2046351173817703
1.6842638567265233	0.2026567258782549
1.6898780695822784	0.09495772604263623
1.6955109964808863	0.04292086523598646
1.7011626998024894	0.020003473647222714
1.7068332421351646	0.05095394267091467
1.7125226862756153	0.1116907598475965
1.7182310952298672	0.20276254128332463
1.7239585322139668	0.11566596043188816
1.7297050606546804	0.032459092515778665
1.7354707441901962	0.07293531955549146
1.7412556466708302	0.2255551380124735
1.747059832159733	0.5207022740722631
1.752883364933599	0.7883045445764937
1.7587263094833776	0.7462535070358322
1.7645887305149892	0.4640068862417094
1.7704706929500391	0.2469810676519579
1.7763722619265396	0.1925348299132275
1.7822935027996283	0.1736599820721096
1.7882344811422937	0.07208747574082154
1.7941952627461015	0.03299671370447655
1.8001759136219222	0.03331948995702466
1.8061765000006618	0.01941375947770331
1.8121970883339975	0.012971797770315565
1.818237745295111	0.007504341315339458
1.8242985377794283	0.008425607241791026
1.8303795329053596	0.003953145592518551
1.8364807980150446	0.0015877438869476034
1.8426024006750947	0.0025549929427282226
1.8487444086773455	0.0034506583787763207
1.8549068900396033	0.0030330195099749356
1.861089913006402	0.00425380233186424
1.8672935460497566	0.003948126961903382
1.873517857869923	0.001985026404044366
1.879762917396156	0.005702895757427679
1.8860287937874767	0.008218594543094242
1.8923155564334353	0.008983200067866461
1.8986232749548801	0.006990333636805565
1.9049520192047298	0.003449716592906946
1.9113018592687456	0.0038836210939750945
1.9176728654663082	0.0033548289133826644
1.9240651083511964	0.003766384635929802
1.9304786587123668	0.002097184336524479
1.9369135875747419	0.0006839240003479967
1.9433699661999908	0.000278013679596027
1.9498478660873244	9.625839948150869e-05
1.9563473589742824	0.00033087148015886406
1.9628685168375302	0.0006673832803633771
1.9694114118936552	0.0007384456268811549
1.9759761165999676	0.0006913690928536604
1.9825627036553009	0.0007792120147912484
1.9891712460008188	0.0012374320007469066
1.9958018168208218	0.0013644831127698305
2.002454489543558	0.0013805463771623624
2.0091293378420367	0.0013492299425003635
2.0158264356348434	0.0015465872791727904
2.02254585708696	0.0021253840777954677
2.029287676610583	0.00364944006379081
2.036051968865952	0.004025673031054147
2.042838808762172	0.0036273113072949116
2.049648271458046	0.003295844577753472
2.0564804323629065	0.0028583907687645834
2.0633353671374497	0.0023103336190715583
2.0702131516945745	0.0017651117030932561
2.0771138622002234	0.0012721291054880058
2.084037575074224	0.0009018384385378979
2.0909843669911385	0.0006488779189452998
2.097954314881109	0.0004914935776720661
2.1049474959307126	0.00041184716245851584
2.1119639875838154	0.0004032438325925904
2.1190038675424283	0.00047166583037485
2.12606721376757	0.0006317664498386632
2.1331541044801288	0.0009010482791712151
2.140264618161729	0.0013033156797153161
2.147398833555602	0.0017184541657811465
2.154556829667454	0.0019023282787292831
2.1617386857663456	0.001897473501281619
2.1689444813855667	0.0017598937425493911
2.176174296323519	0.001731139020075484
2.1834282106445975	0.0017066758357261419
2.19070630468008	0.0012888394017167963
2.1980086590290138	0.0004605426245425152
2.2053353545591103	9.510478154548324e-05
2.2126864724076407	0.00010164067636159333
2.220062093982333	4.174353615354314e-05
2.2274623009622747	3.0211727818830807e-05
2.2348871752988155	3.136560727499505e-05
2.2423367992164787	3.308672513628373e-05
