#wavelength (micron)	surface_flux (erg / (cm2 micron s))
0.40133895199999997	0.0685629488726581
0.40267674850666674	0.05364799402456154
0.40401900433502225	0.005667781975726155
0.4053657343494724	0.006379206551681135
0.4067169534639707	0.09298545862238097
0.40807267664218394	0.6331504608035964
0.4094329188976579	2.521415565630615
0.41079769529398347	7.002282298473742
0.41216702094496344	15.334915482852686
0.41354091101477997	28.51268789616643
0.4149193807181627	46.782869302389486
0.41630244532055655	69.02134395920258
0.41769012013829176	86.85993371850537
0.41908242053875283	67.7681751387202
0.4204793619405487	24.5604844113741
0.42188095981368384	62.238143378193726
0.42328722967972954	205.1572698081759
0.4246981871119953	342.27011053360485
0.42611384773570193	446.03194314782877
0.4275342272281543	549.5407470952764
0.4289593413189149	664.5099268112838
0.43038920578997797	787.5009644562482
0.4318238364759446	910.4429057152635
0.43326324926419774	1063.109162344421
0.4347074600950785	1224.7393674841392
0.4361564849620621	1368.0174047183793
0.43761033991193565	1524.8567375692508
0.4390690410449755	1695.6986826635298
0.44053260451512544	1879.3542328535473
0.4420010465301759	2136.288292444308
0.44347438335194317	2439.4922030683124
0.4449526312964497	2766.4461687138687
0.44643580673410455	2979.149382261821
0.44792392608988496	3181.6107111714823
0.4494170058435179	3419.9531955426314
0.450915062529663	3755.519531231752
0.4524181127380953	4150.228581873975
0.45392617311388894	4255.702489444771
0.45543926035760196	3196.0855000190422
0.45695739122546064	2802.046158082249
0.4584805825295456	1752.8432700621138
0.46000885113797746	1230.90601783991
0.46154221397510403	1155.2883078937969
0.4630806880216877	971.1797112076077
0.4646242903150934	779.9415424601266
0.4661730379494771	626.9169869117111
0.4677269480759754	500.0142807155095
0.4692860379028953	380.9891246791448
0.47085032469590504	261.5576036625858
0.4724198257782247	162.08163464019395
0.47399455853081884	95.93247618733561
0.4755745403925883	56.97802572588738
0.4771597888605636	34.594949714580125
0.47875032149009894	22.25225756652889
0.4803461558950659	14.359973880941887
0.48194730974804956	8.987656146770384
0.48355380078054305	5.607264566529689
0.4851656467831449	3.586820833150866
0.48678286560575545	2.5133230308484826
0.4884054751577746	1.9258880373242426
0.4900334934083006	1.5340307968605214
0.4916669383863283	1.2618095111564016
0.4933058281809494	1.060424426251936
0.4949501809415526	0.9070570488568397
0.4966000148780246	0.7841242671718411
0.4982553482609513	0.664798800376941
0.4999161994218212	0.5643632224805551
0.5015825867532273	0.48673722173110384
0.5032545287090715	0.43578888935094956
0.5049320438047684	0.41379499522737134
0.506615150617451	0.43314304809644266
0.5083038677861758	0.45314385705562826
0.5099982140121297	0.4682936011488407
0.5116982080588369	0.48075612034699305
0.5134038687523664	0.5042076603662051
0.515115214981541	0.5262416805079505
0.5168322656981462	0.5448221914969489
0.5185550399171401	0.5784421993866377
0.5202835567168639	0.6063754719954239
0.5220178352392535	0.6308374573557483
0.5237578946900511	0.6555078608669167
0.525503754339018	0.6822992279127423
0.527255433520148	0.7090702459553225
0.5290129516318819	0.7375827284657585
0.5307763281373216	0.7691981180364035
0.532545582564446	0.802318410367462
0.5343207345063276	0.8364654658216738
0.5361018036213486	0.8689552570112855
0.5378888096334199	0.9056012523862192
0.5396817723321979	0.94822312983874
0.5414807115733054	0.9869818921599892
0.5432856472785497	1.0292004280096547
0.545096599436145	1.0486375673376742
0.5469135881009322	1.0666469947721335
0.5487366333946019	1.1399204941713665
0.5505657555059172	1.2027760192719033
0.5524009746909371	1.257873710138497
0.5542423112732402	1.3029867083730444
0.556089785644151	1.3518331594937805
0.557943418262965	1.398815505475779
0.5598032296571749	1.439997902792265
0.5616692404226988	1.477139893897023
0.5635414712241079	1.5116199811917082
0.5654199427948549	1.5357140727888203
0.5673046759375044	1.519194755608272
0.569195691523963	1.4769571038498797
0.5710930104957095	1.4845519536990586
0.5729966538640286	1.5320433972178313
0.5749066427102419	1.5077555779187137
0.576822998185943	1.4479247199970815
0.5787457415132294	1.4037667572391042
0.5806748939849402	1.3174143048327258
0.58261047696489	1.1944876109233333
0.5845525118881064	1.0274697366847332
0.5865010202610669	0.6828382432403112
0.588456023661937	0.24294651961349803
0.5904175437408102	0.2227759820733243
0.5923856022199464	0.7594805175289144
0.5943602208940129	1.500005099213044
0.5963414216303263	2.2539631316747517
0.598329226369094	3.0121442047316647
0.6003236571236578	3.914826328313857
0.6023247359807368	4.963268524703844
0.6043324851006725	6.173817004248027
0.6063469267176749	7.631286298059998
0.6083680831400672	9.329022182206359
0.610395976750534	11.166952611673757
0.6124306300063692	13.185473767452859
0.6144720654397238	15.496729760664424
0.6165203056578563	18.02657053979609
0.6185753733433824	20.891400026230297
0.6206372912545272	24.038744805123752
0.6227060822253756	27.54936321784315
0.6247817691661269	31.48984912049421
0.6268643750633474	35.25398861163025
0.6289539229802253	39.73437171453958
0.6310504360568261	45.77793712186732
0.6331539375103489	51.306801110490376
0.6352644506353834	58.40940475577089
0.6373819988041681	64.22624131247986
0.6395066054668487	68.35996576059883
0.6416382941517382	79.79719388414159
0.6437770884655775	87.33422550616083
0.6459230120937961	82.34799250048512
0.6480760888007754	92.63855052311251
0.6502363424301114	122.26329755331993
0.6524037969048785	145.66673952888257
0.6545784762278948	159.8406449482344
0.6567604044819878	179.5397870633973
0.6589496058302612	206.36233683864836
0.6611461045163621	229.71646782855137
0.66334992486475	259.63936503285265
0.6655610912809659	290.3057173937576
0.6677796282519025	332.8147290709188
0.6700055603460756	365.770278514957
0.6722389122138959	415.5202795347754
0.6744797085879423	479.59162729080924
0.6767279742832354	528.2780734273673
0.6789837341975129	575.7020769966219
0.6812470133115047	626.7372945150903
0.6835178366892097	665.7836401969279
0.6857962294781739	683.8719156248777
0.6880822169097679	684.8765667742545
0.6903758242994671	634.0407861800005
0.6926770770471321	530.3507518979645
0.6949860006372892	552.3098906341287
0.6973026206394136	629.5852833194924
0.6996269627082117	608.3643981136288
0.7019590525839058	529.9954256588343
0.7042989160925188	618.4423513503737
0.7066465791461606	709.0974467339463
0.7090020677433145	709.5162390221121
0.7113654079691256	743.2848085164592
0.7137366259956894	770.3011146938845
0.7161157480823418	644.5198180822277
0.7185028005759496	538.1295801843746
0.7208978099112028	579.8572490332772
0.7233008026109069	667.3197527396331
0.7257118052862767	708.4910787716393
0.728130844637231	747.7069128294569
0.7305579474526884	666.7821745962647
0.7329931406108642	622.2282697470213
0.7354364510795671	605.7326712829498
0.7378879059164991	696.1145037169821
0.7403475322695541	844.6447641755574
0.7428153573771193	898.5965010716513
0.7452914085683765	969.9871678521492
0.7477757132636044	1006.5643836943544
0.7502682989744831	980.9927796347839
0.7527691933043982	982.5987996792596
0.7552784239487462	957.7360161256161
0.7577960186952422	933.3108586057451
0.7603220054242263	868.3483658689134
0.7628564121089738	646.5356810638878
0.7653992668160038	262.8911269625045
0.7679505977053904	106.11056808167118
0.7705104330310751	205.27876001369324
0.7730788011411788	567.3303717643041
0.7756557304783162	978.926917278884
0.7782412495799106	1245.1885309331258
0.7808353870785104	1444.3559802527013
0.7834381717021055	1800.5189496683536
0.7860496322744459	2070.95262431327
0.7886697977153608	2399.1988448191255
0.7912986970410787	2798.300261460783
0.793936359364549	2905.4701178147084
0.7965828138957642	3164.3628656807236
0.7992380899420836	3692.538102365121
0.8019022169085571	4330.185133793374
0.8045752242982523	4888.791063443309
0.80725714171258	5115.52407605712
0.809947998851622	4723.449009913681
0.8126478255144608	4052.157662512776
0.8153566515995091	3521.9503638275496
0.8180745071048409	4592.6831165055655
0.8208014221285237	6895.782442444783
0.8235374268689521	7475.9469706836735
0.8262825516251822	8567.624795688596
0.8290368267972661	8689.87014361122
0.8318002828865904	8739.273914478523
0.8345729504962124	7462.273505607887
0.8373548603311998	7778.035082442369
0.8401460431989706	10493.313022591856
0.8429465300096338	11037.335830402062
0.8457563517763327	12119.415218474685
0.8485755396155872	13493.004073375547
0.8514041247476393	14460.8874498942
0.8542421384967981	17009.65981316996
0.8570896122917875	19993.82249892688
0.8599465776660935	22356.53267106274
0.8628130662583139	24333.685614128844
0.8656891098125085	25789.589189237664
0.8685747401785502	26722.78394455324
0.8714699893124788	27416.071849017426
0.8743748892768537	29743.75232304896
0.8772894722411099	31887.881121765095
0.8802137704819137	31273.981981000714
0.8831478163835201	28580.92360800568
0.8860916424381319	20238.913912316468
0.8890452812462591	8349.026745352907
0.89200876551708	2918.375620149256
0.8949821280688037	6589.310536866193
0.8979654018290332	8110.559152653314
0.90095861983513	6364.045581165441
0.9039618152345804	11813.853323749772
0.9069750212853626	15647.891425337037
0.9099982713563137	22561.267605433226
0.9130315989275016	26207.49367790341
0.9160750375905932	23960.000791175644
0.9191286210492287	42042.38323342158
0.9221923831193928	75127.77989741937
0.9252663577297908	70767.4283525937
0.9283505789222235	29601.47205158951
0.9314450808519644	13640.982042157522
0.9345498977881376	11078.566025989703
0.9376650641140981	13054.156427814629
0.940790614327812	32031.922224109265
0.9439265830422381	49788.71430310711
0.9470730049857122	45293.04673192764
0.9502299150023314	22662.066891984607
0.9533973480523392	22329.763392004686
0.9565753392125138	26399.56408339625
0.9597639236765556	26867.48368709309
0.9629631367554774	16421.113035029
0.9661730138779958	28903.62759051943
0.9693935905909224	54032.99494878734
0.972624902559559	61785.7717158406
0.9758669855680909	61460.2324562544
0.9791198755199847	62046.22806013576
0.9823836084383848	48004.28928077861
0.9856582204665127	74948.07069679935
0.9889437478680678	94018.50458969064
0.9922402270276282	81174.9895671994
0.9955476944510537	59716.4125151695
0.9988661867658906	65541.90281249756
1.002195740721777	62995.482347115314
1.0055363931908496	71761.8666307355
1.0088881811681525	95885.37391812525
1.0122511417720463	148446.56489141722
1.01562531224462	138560.73589734617
1.019010729952102	131716.91398761637
1.0224074323852759	148520.65575234906
1.0258154571598936	198736.19315468377
1.0292348420170931	258084.04088460113
1.0326656248238169	267296.24000973365
1.0361078435732296	239669.52581940216
1.0395615363851405	394849.08160629356
1.0430267415064245	645482.6801554074
1.0465034973114462	679706.8895486501
1.0499918423024843	584136.5445963894
1.0534918151101593	838569.1641983717
1.05700345449386	1225025.6801611953
1.0605267993421728	1445366.337559492
1.0640618886733135	1554554.266540337
1.067608761635558	1538667.67027166
1.0711674575076766	1470229.6879206614
1.0747380156993689	1299607.7865146203
1.0783204757517002	952012.7481180367
1.0819148773375393	938364.8845298638
1.085521260261998	859189.8818901568
1.0891396644628712	725193.1110867498
1.092770130011081	429886.60909013747
1.0964126971111179	180458.5640918149
1.1000674061014886	158852.95147756473
1.10373429745516	163682.9152276843
1.1074134117800107	60398.12104294916
1.1111047898192774	22574.363009820107
1.1148084724520084	12064.695238415714
1.1185245006935154	4711.742270620949
1.1222529156958272	6046.9143002539095
1.1259937587481466	9222.075459961454
1.1297470712773072	10473.94357743619
1.1335128948482316	4478.185411923379
1.1372912711643925	4442.764580902636
1.1410822420682738	10337.815801159317
1.1448858495418348	10452.506675619135
1.1487021357069744	4533.431787963346
1.1525311428259977	1018.2827877206587
1.1563729133020846	159.04736476028515
1.1602274896797582	145.0813094075965
1.1640949146453576	1495.4365279401218
1.1679752310275089	4407.2787135864455
1.1718684817976006	2161.4602122932333
1.1757747100702594	491.4689587922377
1.1796939591038271	1749.0415030961599
1.1836262723008397	2398.6811409640227
1.1875716932085094	2895.0589554390945
1.1915302655192046	3213.244793671011
1.1955020330709352	6740.90221037731
1.1994870398478386	22086.44242337039
1.2034853299806647	37158.07304734279
1.207496947747267	44679.47731142998
1.2115219375730912	66838.91607116163
1.2155603440316685	71658.05146702082
1.2196122118451074	108782.69381982926
1.2236775858845912	174735.77176481075
1.2277565111708733	347923.82258256024
1.2318490328747762	546085.158767378
1.2359551963176922	578377.0229688886
1.2400750469720847	857001.9289081049
1.2442086304619917	1388828.588804372
1.248355992563532	1546132.4756423745
1.2525171792054102	1636277.5052213604
1.2566922364694284	2072803.0509993497
1.2608812105909932	2251939.34171165
1.2650841479596302	2159715.356789933
1.2693010951194956	2113611.371050707
1.273532098769894	2278875.7045396958
1.2777772057657937	1859179.0188928759
1.2820364631183463	1212723.8749509465
1.2863099179954076	674463.9252821855
1.2905976177220593	602060.8233283915
1.2948996097811327	477721.49147146044
1.2992159418137368	399188.0143774529
1.3035466616197826	283543.18527389865
1.3078918171585154	177403.60600541992
1.3122514565490437	59270.44406089593
1.3166256280708741	62818.08799472723
1.3210143801644436	67038.77016100893
1.3254177614316587	45648.82869450018
1.329835820636431	18562.25384543542
1.3342686067052192	5216.538538325995
1.33871616872757	2941.643570524558
1.343178555956662	1564.7567442514805
1.347655817809851	580.3840780830087
1.352148003869217	352.58177408622737
1.3566551638821147	258.18701468775356
1.3611773477617217	80.71881908012372
1.3657146055875944	52.37543431488376
1.3702669876062197	98.45675885804437
1.3748345442315741	151.84550693013045
1.3794173260456792	185.82630910110987
1.384015383799165	91.49830172407795
1.388628768411829	68.76638553589962
1.3932575309732018	77.294160988914
1.3979017227431125	124.7843537715214
1.4025613951522564	353.9717451944406
1.407236599802764	421.83950090964834
1.4119273884687735	567.0973366867576
1.4166338130970026	408.53448531150883
1.4213559258073263	431.583297492593
1.4260937788933508	993.4207059086643
1.4308474248229952	1204.5799874994732
1.4356169162390722	1085.6128041526556
1.4404023059598692	3857.0932237951406
1.4452036469797356	6408.3710248759935
1.450020992469668	4347.609830842091
1.4548543957779003	3367.2642933397256
1.4597039104304934	3520.2593437309974
1.4645695901319284	5352.587645725191
1.469451488765702	3406.7738566814473
1.4743496603949209	733.9708149646706
1.479264159262904	1166.4263334720904
1.4841950397937806	1476.435498245041
1.4891423565930935	1553.1966194722227
1.4941061644484037	3631.5349852739905
1.4990865183298985	8011.8481167414875
1.5040834733909982	8823.839611043819
1.5090970849689684	13934.585513991522
1.5141274085855316	6465.676794249633
1.5191744999474837	6766.360192299735
1.5242384149473087	10900.393315139445
1.5293192096638	22023.470257200148
1.5344169403626793	17489.56973525744
1.5395316634972218	28466.746940470057
1.544663435708879	38273.99829535642
1.5498123138279087	55594.073640042385
1.554978354874002	117074.38370625064
1.5601616160569156	105349.86069311427
1.5653621547771055	126453.78597948972
1.5705800286263625	283112.6736316052
1.5758152953884506	396601.3337587686
1.5810680130397454	434122.7142520504
1.5863382397498782	412207.3868375065
1.5916260338823778	498233.45826840546
1.5969314539953192	379404.04046116694
1.6022545588419705	190528.70745950213
1.6075954073714436	88363.13507083719
1.6129540587293487	42695.22434764453
1.6183305722584467	22723.779702476866
1.6237250074993084	13819.082336986143
1.6291374241909726	12930.903840740346
1.6345678822716092	10719.295141053904
1.6400164418791816	3937.664489214939
1.6454831633521123	5636.097566999869
1.6509681072299527	9485.148281145848
1.6564713342540527	11468.880821071976
1.6619929053682332	11857.110548080713
1.6675328817194608	5851.750832507307
1.6730913246585257	1130.6031171998886
1.6786682957407209	4120.265035240985
1.6842638567265233	6898.204144603216
1.6898780695822784	4981.947322099828
1.6955109964808863	1232.4764645448563
1.7011626998024894	1741.340691872917
1.7068332421351646	4929.325801737435
1.7125226862756153	5179.630589908315
1.7182310952298672	5428.271977956699
1.7239585322139668	4605.966048789257
1.7297050606546804	2138.5441524661774
1.7354707441901962	3638.9699307068026
1.7412556466708302	4207.063348119176
1.747059832159733	7066.687795307843
1.752883364933599	11998.420330951816
1.7587263094833776	7299.532259502396
1.7645887305149892	3980.648368532767
1.7704706929500391	4828.671003373268
1.7763722619265396	13071.087541260053
1.7822935027996283	12867.465953791327
1.7882344811422937	8793.589276033103
1.7941952627461015	3984.109892481126
1.8001759136219222	2551.991888859936
1.8061765000006618	5372.321317436847
1.8121970883339975	6967.195098447715
1.818237745295111	8578.283327743
1.8242985377794283	13123.340284121654
1.8303795329053596	5230.101727255503
1.8364807980150446	1346.364436235449
1.8426024006750947	4624.07797953703
1.8487444086773455	8579.66449878116
1.8549068900396033	8103.927363104054
1.861089913006402	3528.702960326978
1.8672935460497566	2343.5648240732094
1.873517857869923	2534.2833658965465
1.879762917396156	9249.332233991736
1.8860287937874767	15940.657227919586
1.8923155564334353	20859.140900829083
1.8986232749548801	17127.970332233508
1.9049520192047298	7423.618040613535
1.9113018592687456	7770.068060315565
1.9176728654663082	2750.7066755433652
1.9240651083511964	1903.2315778142047
1.9304786587123668	1068.8522097103764
1.9369135875747419	621.3640324093043
1.9433699661999908	1259.5410560926039
1.9498478660873244	577.7474950633394
1.9563473589742824	885.2689865798113
1.9628685168375302	4695.806400885678
1.9694114118936552	8494.121477360048
1.9759761165999676	11795.410600800578
1.9825627036553009	14311.025281103914
1.9891712460008188	18070.002919935912
1.9958018168208218	19202.421094018835
2.002454489543558	19881.220050579614
2.0091293378420367	19485.292403886422
2.0158264356348434	15246.046258348444
2.02254585708696	9085.181100167705
2.029287676610583	14098.344344292485
2.036051968865952	25045.15278990688
2.042838808762172	33169.38811649185
2.049648271458046	34214.53060671011
2.0564804323629065	44287.79803952286
2.0633353671374497	78470.94552594017
2.0702131516945745	122870.38095396159
2.0771138622002234	108267.5392339637
2.084037575074224	83591.82405005627
2.0909843669911385	76106.39814462313
2.097954314881109	81977.05916652111
2.1049474959307126	108411.21311256061
2.1119639875838154	116908.25841571059
2.1190038675424283	87149.09489696936
2.12606721376757	82758.77324429079
2.1331541044801288	84521.06870163954
2.140264618161729	65636.09659017345
2.147398833555602	43005.172487890595
2.154556829667454	37879.84986198103
2.1617386857663456	27749.477457669884
2.1689444813855667	25324.893384515486
2.176174296323519	26047.104572345146
2.1834282106445975	20962.302125825237
2.19070630468008	8228.908858707071
2.1980086590290138	1152.1509747672123
2.2053353545591103	1176.4989499152532
2.2126864724076407	3325.2863902900904
2.220062093982333	2565.4654836684686
2.2274623009622747	884.6518273848267
2.2348871752988155	378.0914264098896
2.2423367992164787	376.5801387627442
2.2498112552138667	272.81312201252655
2.25731062606458	207.0398455755035
2.2648349948181288	222.28381753476225
2.272384444800856	276.33767655280303
2.2799590596168593	527.9807479429629
2.2875589231489153	363.53568113881613
2.295184119559412	223.7756745857529
2.302834733291277	945.293124713274
2.3105108490689146	1636.310993175884
2.3182125518991445	717.2180355125173
2.325939927072142	178.51449812022113
2.3336930601623824	167.5768664686965
2.341472037029591	74.73538150931448
2.3492769438196897	124.53445686561585
2.3571078669657557	908.7905314491785
2.364964893188975	1331.920912567527
