#wavelength (micron)	surface_flux (erg / (cm2 micron s))
0.40133895199999997	0.014859468024070354
0.40267674850666674	0.015082784725257948
0.40401900433502225	0.0036769535753751158
0.4053657343494724	0.004074173320891571
0.4067169534639707	0.023469501379448345
0.40807267664218394	0.0844269024749147
0.4094329188976579	0.2166921108829979
0.41079769529398347	0.4476802466612953
0.41216702094496344	0.8044523217053321
0.41354091101477997	1.3155390674104706
0.4149193807181627	1.9987534234404605
0.41630244532055655	2.8353795937415978
0.41769012013829176	3.594341819302631
0.41908242053875283	3.295601636084668
0.4204793619405487	2.3925614298474467
0.42188095981368384	4.33352534705031
0.42328722967972954	9.206651473960678
0.4246981871119953	14.1511260242507
0.42611384773570193	18.715735432804458
0.4275342272281543	23.63681724068545
0.4289593413189149	29.163445413305073
0.43038920578997797	35.44117312731802
0.4318238364759446	42.59352521019107
0.43326324926419774	50.72502833316211
0.4347074600950785	59.94284195703225
0.4361564849620621	70.35960820921136
0.43761033991193565	82.08507206892989
0.4390690410449755	95.21358529045723
0.44053260451512544	109.94166921819472
0.4420010465301759	126.22110865112198
0.44347438335194317	144.60490936722294
0.4449526312964497	165.4716243154836
0.44643580673410455	188.48637965960356
0.44792392608988496	214.02576552117614
0.4494170058435179	242.3970140904713
0.450915062529663	273.4766940119939
0.4524181127380953	305.85083626353503
0.45392617311388894	330.98717731005706
0.45543926035760196	339.9783987923464
0.45695739122546064	311.8504796123847
0.4584805825295456	237.35512870485556
0.46000885113797746	215.75715366553848
0.46154221397510403	207.06469431127294
0.4630806880216877	193.04707995194687
0.4646242903150934	175.96775271826442
0.4661730379494771	159.05563440601696
0.4677269480759754	142.1215567130826
0.4692860379028953	123.18158654181313
0.47085032469590504	103.48079744287458
0.4724198257782247	84.94805542908207
0.47399455853081884	69.04571594754948
0.4755745403925883	56.47566838483945
0.4771597888605636	47.1289016990606
0.47875032149009894	40.41581940872218
0.4803461558950659	34.69094848194385
0.48194730974804956	29.496817908568385
0.48355380078054305	25.067550267742785
0.4851656467831449	21.536730759201347
0.48678286560575545	18.93481219742193
0.4884054751577746	16.953449146625434
0.4900334934083006	15.370939959161937
0.4916669383863283	13.97486329339918
0.4933058281809494	12.640310698355488
0.4949501809415526	11.360555983889018
0.4966000148780246	10.082222179303146
0.4982553482609513	8.7062481123574
0.4999161994218212	7.348808071544072
0.5015825867532273	6.1268033348494635
0.5032545287090715	5.177050427511929
0.5049320438047684	4.762788821060939
0.506615150617451	4.711886734005208
0.5083038677861758	4.690127105893353
0.5099982140121297	4.708794243242256
0.5116982080588369	4.727078901436017
0.5134038687523664	4.753583817451986
0.515115214981541	4.8199220952417585
0.5168322656981462	4.90937659616329
0.5185550399171401	5.019051090573551
0.5202835567168639	5.113951902884116
0.5220178352392535	5.1895697015255084
0.5237578946900511	5.243697127557219
0.525503754339018	5.30830687129929
0.527255433520148	5.371936245468989
0.5290129516318819	5.432756061331294
0.5307763281373216	5.499645402641851
0.532545582564446	5.582543526314743
0.5343207345063276	5.672556900957488
0.5361018036213486	5.755635379864118
0.5378888096334199	5.833343048746985
0.5396817723321979	5.881885779421875
0.5414807115733054	5.943405741076499
0.5432856472785497	6.092722680127832
0.545096599436145	6.213551449725763
0.5469135881009322	6.310129272296981
0.5487366333946019	6.475733081947256
0.5505657555059172	6.6315505112008415
0.5524009746909371	6.788345765535743
0.5542423112732402	6.93776330977952
0.556089785644151	7.072274751794757
0.557943418262965	7.1964981682867375
0.5598032296571749	7.302162908491704
0.5616692404226988	7.386774008981053
0.5635414712241079	7.458964274431948
0.5654199427948549	7.493519377706908
0.5673046759375044	7.382561434608451
0.569195691523963	7.2753156388569185
0.5710930104957095	7.342417711533471
0.5729966538640286	7.287291004122281
0.5749066427102419	7.1416441024636255
0.576822998185943	6.9334639566497485
0.5787457415132294	6.6751764572441985
0.5806748939849402	6.276025736503969
0.58261047696489	5.729521263700422
0.5845525118881064	4.938413782362107
0.5865010202610669	3.395470583914421
0.588456023661937	1.3080764830743696
0.5904175437408102	1.2465872689969526
0.5923856022199464	3.9604967789531234
0.5943602208940129	7.0360851570808345
0.5963414216303263	9.917951533055943
0.598329226369094	12.99724940933826
0.6003236571236578	16.603009186684723
0.6023247359807368	20.936049245631697
0.6043324851006725	26.217572288850285
0.6063469267176749	32.511039751527946
0.6083680831400672	39.5274374239711
0.610395976750534	47.602030246751625
0.6124306300063692	56.86387520959142
0.6144720654397238	67.48837655593458
0.6165203056578563	79.450840298799
0.6185753733433824	93.12470986759463
0.6206372912545272	108.58437477269696
0.6227060822253756	125.77256186533688
0.6247817691661269	143.732299539906
0.6268643750633474	162.53543096371538
0.6289539229802253	188.80532699492173
0.6310504360568261	219.6514552262906
0.6331539375103489	250.76519605897286
0.6352644506353834	291.0969641175562
0.6373819988041681	332.01994866433483
0.6395066054668487	376.891684696006
0.6416382941517382	430.3579279361328
0.6437770884655775	478.80688318477155
0.6459230120937961	508.8988303046786
0.6480760888007754	571.6544609234418
0.6502363424301114	677.4213197553992
0.6524037969048785	773.0798627602284
0.6545784762278948	884.9481761834078
0.6567604044819878	991.4941073700058
0.6589496058302612	1135.520434678002
0.6611461045163621	1309.4765615753106
0.66334992486475	1510.6605006259244
0.6655610912809659	1724.3422460764614
0.6677796282519025	1945.435466895069
0.6700055603460756	2083.5555323339754
0.6722389122138959	2331.7960847146414
0.6744797085879423	2722.751187001361
0.6767279742832354	2994.1728395847513
0.6789837341975129	3180.6215053762603
0.6812470133115047	3269.802201144468
0.6835178366892097	3239.260650900637
0.6857962294781739	3076.28305731245
0.6880822169097679	2790.0541249038956
0.6903758242994671	2344.023748817715
0.6926770770471321	1812.4857130652306
0.6949860006372892	1667.0664333555435
0.6973026206394136	1735.6595395767577
0.6996269627082117	1655.877897599324
0.7019590525839058	1543.1349575625509
0.7042989160925188	1563.513315114571
0.7066465791461606	1636.5821289209764
0.7090020677433145	1698.3256402296233
0.7113654079691256	1716.050176464886
0.7137366259956894	1665.8050905543869
0.7161157480823418	1262.2149395405254
0.7185028005759496	964.2567807134095
0.7208978099112028	1149.5753940564266
0.7233008026109069	1230.812461109845
0.7257118052862767	1103.2556348354215
0.728130844637231	1154.2705617192764
0.7305579474526884	1143.1327840807708
0.7329931406108642	1200.1715579457998
0.7354364510795671	1255.9003548507449
0.7378879059164991	1388.8589679993984
0.7403475322695541	1545.7726250474486
0.7428153573771193	1698.4662705923151
0.7452914085683765	1796.5351342573258
0.7477757132636044	1925.4756939474382
0.7502682989744831	2009.3810564403127
0.7527691933043982	2052.679203546315
0.7552784239487462	2090.8109669278947
0.7577960186952422	2094.415583493553
0.7603220054242263	2061.3528133242307
0.7628564121089738	1814.3660760813088
0.7653992668160038	1151.9912641336812
0.7679505977053904	846.0650591675588
0.7705104330310751	1145.3120515316957
0.7730788011411788	1820.5177934816347
0.7756557304783162	2406.4296375602316
0.7782412495799106	2782.25039137715
0.7808353870785104	3061.8314254760935
0.7834381717021055	3568.9091062035236
0.7860496322744459	3830.464828917834
0.7886697977153608	4239.76865408275
0.7912986970410787	5012.2285907782525
0.793936359364549	5294.341015941687
0.7965828138957642	5676.16814264498
0.7992380899420836	6719.619337406644
0.8019022169085571	7631.86131726331
0.8045752242982523	8469.147291030893
0.80725714171258	8749.14628714505
0.809947998851622	7651.779436661227
0.8126478255144608	6233.473843386323
0.8153566515995091	5546.053990399587
0.8180745071048409	7671.062606409519
0.8208014221285237	10651.622174223596
0.8235374268689521	10946.623429550438
0.8262825516251822	13688.671395106827
0.8290368267972661	14616.61280704555
0.8318002828865904	14985.752858178168
0.8345729504962124	15787.163022637826
0.8373548603311998	17742.469685289238
0.8401460431989706	22757.496148053993
0.8429465300096338	26302.984163403
0.8457563517763327	30780.204998166093
0.8485755396155872	35468.867087412786
0.8514041247476393	38884.39810782427
0.8542421384967981	44070.57172823065
0.8570896122917875	50860.50931491335
0.8599465776660935	56843.58452290888
0.8628130662583139	62224.99970842171
0.8656891098125085	67145.89693006234
0.8685747401785502	70984.59952338433
0.8714699893124788	74778.19452968339
0.8743748892768537	79508.94728888084
0.8772894722411099	83896.30210752408
0.8802137704819137	85945.88286174617
0.8831478163835201	84960.1102519276
0.8860916424381319	71226.25948319037
0.8890452812462591	42513.53625815614
0.89200876551708	22128.792829345173
0.8949821280688037	21836.447967173965
0.8979654018290332	20460.47131292239
0.90095861983513	25718.41749592888
0.9039618152345804	51901.95174654014
0.9069750212853626	54710.7008826632
0.9099982713563137	52145.92583633046
0.9130315989275016	65352.073973367216
0.9160750375905932	75199.29571249575
0.9191286210492287	92747.81780638795
0.9221923831193928	115766.21716428483
0.9252663577297908	83618.3001153924
0.9283505789222235	24143.499614218686
0.9314450808519644	1454.0426955377648
0.9345498977881376	1843.214297364195
0.9376650641140981	10420.311284948726
0.940790614327812	23850.203415344702
0.9439265830422381	16322.48706948318
0.9470730049857122	9228.876105816538
0.9502299150023314	8126.376667020142
0.9533973480523392	10406.58259812724
0.9565753392125138	9906.887282528662
0.9597639236765556	10847.244480544849
0.9629631367554774	12339.187077374518
0.9661730138779958	32425.167826886132
0.9693935905909224	63122.38998940153
0.972624902559559	81017.89013778765
0.9758669855680909	77545.54473196568
0.9791198755199847	95687.13622005744
0.9823836084383848	113162.88948046596
0.9856582204665127	138022.96719208302
0.9889437478680678	181484.76038839002
0.9922402270276282	208192.08169824828
0.9955476944510537	227848.8102958992
0.9988661867658906	208933.8888827121
1.002195740721777	162429.36996994243
1.0055363931908496	177348.95062824164
1.0088881811681525	173644.99976239778
1.0122511417720463	161631.43541169784
1.01562531224462	120738.9759798033
1.019010729952102	86351.6561903281
1.0224074323852759	82550.81758306047
1.0258154571598936	103829.04882924637
1.0292348420170931	119292.2468051426
1.0326656248238169	97312.00428685472
1.0361078435732296	81729.2542343757
1.0395615363851405	103260.64603078412
1.0430267415064245	131485.49610999346
1.0465034973114462	147284.26606848428
1.0499918423024843	151791.19376576823
1.0534918151101593	167338.03214902253
1.05700345449386	181823.28677805798
1.0605267993421728	182305.24491532112
1.0640618886733135	175620.88018441678
1.067608761635558	163492.12010918098
1.0711674575076766	151495.5241279272
1.0747380156993689	139728.1855129614
1.0783204757517002	127419.88116678751
1.0819148773375393	116162.83594324556
1.085521260261998	104634.5407626091
1.0891396644628712	92462.82389770712
1.092770130011081	74620.03040815894
1.0964126971111179	52844.315601625705
1.1000674061014886	36503.23534245998
1.10373429745516	21302.683842403017
1.1074134117800107	8942.278823871102
1.1111047898192774	3047.181103935871
1.1148084724520084	1497.3583692824207
1.1185245006935154	1102.2747722322606
1.1222529156958272	1169.6806047620735
1.1259937587481466	1340.8697587126917
1.1297470712773072	1928.015470240298
1.1335128948482316	1401.653656888769
1.1372912711643925	2926.9897534167244
1.1410822420682738	5538.622224979828
1.1448858495418348	3100.042379689291
1.1487021357069744	1203.3465891088647
1.1525311428259977	906.4542526294728
1.1563729133020846	325.0695253861602
1.1602274896797582	311.64125678770455
1.1640949146453576	1052.7546171769486
1.1679752310275089	2450.672519755509
1.1718684817976006	1575.0216523278807
1.1757747100702594	1659.533439928578
1.1796939591038271	4334.587145541769
1.1836262723008397	5295.2745538418385
1.1875716932085094	6242.824662382626
1.1915302655192046	7806.979933621253
1.1955020330709352	10020.172436099947
1.1994870398478386	13837.808345471765
1.2034853299806647	17198.87120952062
1.207496947747267	17817.885763867795
1.2115219375730912	19082.148523829896
1.2155603440316685	23634.412777880305
1.2196122118451074	28396.396520482573
1.2236775858845912	34901.97545303358
1.2277565111708733	49608.9243549913
1.2318490328747762	61194.89573700962
1.2359551963176922	76583.62029961939
1.2400750469720847	101018.16161778607
1.2442086304619917	129552.2404929462
1.248355992563532	153704.48343445073
1.2525171792054102	164045.30169747042
1.2566922364694284	187860.27748242574
1.2608812105909932	237738.60261365754
1.2650841479596302	289232.3821651663
1.2693010951194956	320915.8604591516
1.273532098769894	292581.9489248372
1.2777772057657937	237650.4418971857
1.2820364631183463	187776.65315982638
1.2863099179954076	137524.01815617492
1.2905976177220593	106510.9535469365
1.2948996097811327	97325.40082600087
1.2992159418137368	89187.18051510182
1.3035466616197826	74481.09261315905
1.3078918171585154	63433.092762159
1.3122514565490437	45286.83676215566
1.3166256280708741	37990.031120733096
1.3210143801644436	39963.56311836269
1.3254177614316587	37044.82349291769
1.329835820636431	19781.8466619458
1.3342686067052192	6552.687922167899
1.33871616872757	2274.0400239420674
1.343178555956662	266.7329253324312
1.347655817809851	41.78629646584451
1.352148003869217	23.79876036492748
1.3566551638821147	4.0630828964010135
1.3611773477617217	0.8919166138300653
1.3657146055875944	1.1805089691367552
1.3702669876062197	1.6927888265357967
1.3748345442315741	10.978110195357793
1.3794173260456792	15.649078039535915
1.384015383799165	3.5919151147508974
1.388628768411829	11.036073312542161
1.3932575309732018	19.393205890319116
1.3979017227431125	25.467808848780454
1.4025613951522564	41.262309343747766
1.407236599802764	37.515635044640305
1.4119273884687735	56.09422775815155
1.4166338130970026	46.23875628955891
1.4213559258073263	53.32244749064725
1.4260937788933508	91.96368929452322
1.4308474248229952	173.46731660262682
1.4356169162390722	233.84088547508597
1.4404023059598692	478.7296417850114
1.4452036469797356	833.2773050593959
1.450020992469668	1643.982008500298
1.4548543957779003	2966.97431195483
1.4597039104304934	4188.070979748376
1.4645695901319284	2610.289147095472
1.469451488765702	998.27191108204
1.4743496603949209	383.34618831693956
1.479264159262904	391.97078593353956
1.4841950397937806	318.6055835013993
1.4891423565930935	280.96361976965886
1.4941061644484037	387.53069154948787
1.4990865183298985	592.7669997754194
1.5040834733909982	836.6753879114805
1.5090970849689684	823.8885717556778
1.5141274085855316	257.7663882557829
1.5191744999474837	652.8175836395033
1.5242384149473087	1575.9887347697236
1.5293192096638	3021.0937618967064
1.5344169403626793	3676.810770963356
1.5395316634972218	4327.61370303909
1.544663435708879	6961.992475364806
1.5498123138279087	11969.111416418182
1.554978354874002	20729.55199220748
1.5601616160569156	33612.68143824699
1.5653621547771055	60981.98911371884
1.5705800286263625	100672.82740467605
1.5758152953884506	130938.89448878399
1.5810680130397454	163077.77271469872
1.5863382397498782	187607.37038635492
1.5916260338823778	209303.44048931365
1.5969314539953192	205459.39553192304
1.6022545588419705	170664.63411065217
1.6075954073714436	120472.32279567377
1.6129540587293487	71471.71162121983
1.6183305722584467	34036.24957668658
1.6237250074993084	14262.812212341412
1.6291374241909726	7164.3612295869125
1.6345678822716092	4850.545928458311
1.6400164418791816	3894.7782270048897
1.6454831633521123	4367.6292808344715
1.6509681072299527	4558.837763195235
1.6564713342540527	7847.729671504563
1.6619929053682332	12235.286988605807
1.6675328817194608	5332.3569216498545
1.6730913246585257	3054.060697596917
1.6786682957407209	6552.300184760781
1.6842638567265233	7346.258264320818
1.6898780695822784	4155.25870684406
1.6955109964808863	1992.7645274801673
1.7011626998024894	1441.1619635535674
1.7068332421351646	3088.4757571309337
1.7125226862756153	4650.242633059072
1.7182310952298672	6497.918076090355
1.7239585322139668	5681.4963690434915
1.7297050606546804	3031.3813861010385
1.7354707441901962	2915.1300661235414
1.7412556466708302	4172.4009072684985
1.747059832159733	6586.711001227637
1.752883364933599	8151.3059822085615
1.7587263094833776	6432.979406245281
1.7645887305149892	4867.82075116109
1.7704706929500391	3503.212941583716
1.7763722619265396	2949.984749382666
1.7822935027996283	2581.502735271101
1.7882344811422937	1470.962050307776
1.7941952627461015	743.2498735869948
1.8001759136219222	689.3393638619634
1.8061765000006618	331.7990917473523
1.8121970883339975	283.1791109083297
1.818237745295111	319.743485774749
1.8242985377794283	481.8645162683986
1.8303795329053596	205.14437904475267
1.8364807980150446	70.72160579892167
1.8426024006750947	173.26559916648682
1.8487444086773455	266.8271954920939
1.8549068900396033	203.40127917886016
1.861089913006402	91.64053288521511
1.8672935460497566	30.961422163979815
1.873517857869923	25.67854225596185
1.879762917396156	238.12395643305624
1.8860287937874767	522.8672328925275
1.8923155564334353	636.3311168878475
1.8986232749548801	522.8057664955473
1.9049520192047298	181.71925044222948
1.9113018592687456	144.25208242557784
1.9176728654663082	140.427836726503
1.9240651083511964	166.0155657489834
1.9304786587123668	66.21859114761256
1.9369135875747419	16.831352678256398
1.9433699661999908	15.879553679747081
1.9498478660873244	38.37518653099681
1.9563473589742824	102.08271815629107
1.9628685168375302	261.98254663722764
1.9694114118936552	417.14602146980235
1.9759761165999676	466.0884563054693
1.9825627036553009	540.4232446887675
1.9891712460008188	734.6594074945026
1.9958018168208218	940.395352740975
2.002454489543558	951.8910125450308
2.0091293378420367	818.7710566947949
2.0158264356348434	776.2009146795632
2.02254585708696	773.602696754387
2.029287676610583	1299.2690694417795
2.036051968865952	1498.4632756724095
2.042838808762172	1720.0857759020569
2.049648271458046	2085.80820518605
2.0564804323629065	2323.270510569344
2.0633353671374497	2444.424271659616
2.0702131516945745	2532.1468242985447
2.0771138622002234	2411.984868901075
2.084037575074224	2324.4447472941574
2.0909843669911385	2239.411417588013
2.097954314881109	2113.824213834432
2.1049474959307126	2069.5855374155517
2.1119639875838154	2084.5043364711555
2.1190038675424283	2059.0616688182595
2.12606721376757	2047.8886399526239
2.1331541044801288	1974.423795180106
2.140264618161729	1950.8839615885752
2.147398833555602	1949.2105740935194
2.154556829667454	1725.4501200814784
2.1617386857663456	1485.0480473198663
2.1689444813855667	1300.5554135651892
2.176174296323519	1161.911014344934
2.1834282106445975	1023.8685511042708
2.19070630468008	619.8167440582565
2.1980086590290138	186.70448557021504
2.2053353545591103	104.27406073829519
2.2126864724076407	203.91165903489355
2.220062093982333	123.78856551308766
2.2274623009622747	102.48314449771966
2.2348871752988155	87.69949929913216
2.2423367992164787	54.32741992912977
2.2498112552138667	32.13167899550689
2.25731062606458	30.417678236577622
2.2648349948181288	9.975151343345262
2.272384444800856	12.164266703711856
2.2799590596168593	26.542417646049696
2.2875589231489153	20.96585882978421
2.295184119559412	16.074373924211518
2.302834733291277	39.518180696756154
2.3105108490689146	98.08195970835595
2.3182125518991445	57.182440143427414
2.325939927072142	22.95219195168726
2.3336930601623824	19.15837159867767
2.341472037029591	22.07046190010849
2.3492769438196897	17.40282941073123
2.3571078669657557	55.882004355503554
2.364964893188975	99.27278551474025
