#wavelength (micron)	surface_flux (erg / (cm2 micron s))
0.40133895199999997	0.0066952855056340715
0.40267674850666674	0.006369574794359996
0.40401900433502225	0.001281540170968554
0.4053657343494724	0.001426320607568466
0.4067169534639707	0.010457829883773249
0.40807267664218394	0.04658575170466062
0.4094329188976579	0.14710227874656043
0.41079769529398347	0.3645383124504615
0.41216702094496344	0.7644543065556582
0.41354091101477997	1.420971235167557
0.4149193807181627	2.385705678350514
0.41630244532055655	3.640961072199921
0.41769012013829176	4.710087219811541
0.41908242053875283	3.6775721432997144
0.4204793619405487	1.3709868064170707
0.42188095981368384	3.8062485530181602
0.42328722967972954	13.361443329954861
0.4246981871119953	23.49903718162174
0.42611384773570193	32.326745909570576
0.4275342272281543	41.82300103036168
0.4289593413189149	52.52174573005891
0.43038920578997797	64.73390679491526
0.4318238364759446	78.6402773765634
0.43326324926419774	94.5306435762571
0.4347074600950785	112.58891368911172
0.4361564849620621	132.93545249108072
0.43761033991193565	155.5578767280133
0.4390690410449755	180.26291732226005
0.44053260451512544	208.81199818614337
0.4420010465301759	240.78172536898208
0.44347438335194317	276.4293980254875
0.4449526312964497	317.7433050031697
0.44643580673410455	362.7875185549165
0.44792392608988496	411.1883406898795
0.4494170058435179	464.3044270958871
0.450915062529663	525.3547553557039
0.4524181127380953	588.5159958653393
0.45392617311388894	591.7263900873575
0.45543926035760196	448.76632694433806
0.45695739122546064	349.1350050916427
0.4584805825295456	149.42771980361366
0.46000885113797746	81.13876924664311
0.46154221397510403	71.20187009021019
0.4630806880216877	59.43895153727805
0.4646242903150934	48.84036106515468
0.4661730379494771	40.263774089044155
0.4677269480759754	33.153251573059464
0.4692860379028953	26.792764632416358
0.47085032469590504	21.274975496820538
0.4724198257782247	16.63808956682744
0.47399455853081884	12.861783199400342
0.4755745403925883	10.00408687593626
0.4771597888605636	7.888186951096821
0.47875032149009894	6.392570047624344
0.4803461558950659	5.0991461708938415
0.48194730974804956	3.9194367193675714
0.48355380078054305	2.951900963148394
0.4851656467831449	2.2206005835888214
0.48678286560575545	1.7632254197120716
0.4884054751577746	1.4676317024164187
0.4900334934083006	1.2441865893693511
0.4916669383863283	1.0780713759460132
0.4933058281809494	0.9400354801923202
0.4949501809415526	0.8234098636941194
0.4966000148780246	0.7242500420272936
0.4982553482609513	0.6236923489555264
0.4999161994218212	0.5344022535286099
0.5015825867532273	0.45918808077933854
0.5032545287090715	0.4001272987590957
0.5049320438047684	0.37990978127770714
0.506615150617451	0.4029547185438013
0.5083038677861758	0.4187953774358338
0.5099982140121297	0.43440358795783407
0.5116982080588369	0.4520095100138427
0.5134038687523664	0.4708722994356328
0.515115214981541	0.49194690936287916
0.5168322656981462	0.5116308592194301
0.5185550399171401	0.5389416208422881
0.5202835567168639	0.5642198957265109
0.5220178352392535	0.5874336794519023
0.5237578946900511	0.6102781257792466
0.525503754339018	0.6355460829767247
0.527255433520148	0.6615924879811471
0.5290129516318819	0.6885940400463659
0.5307763281373216	0.7184312170088856
0.532545582564446	0.7510094606699635
0.5343207345063276	0.784082812500212
0.5361018036213486	0.8162052561732377
0.5378888096334199	0.8509839280508315
0.5396817723321979	0.8850775702437106
0.5414807115733054	0.9181564522702351
0.5432856472785497	0.9606305166463917
0.545096599436145	0.9908979503155734
0.5469135881009322	1.0151860092848959
0.5487366333946019	1.0729994759944377
0.5505657555059172	1.1270131382350748
0.5524009746909371	1.175753832513133
0.5542423112732402	1.2186754564967244
0.556089785644151	1.2630719351026272
0.557943418262965	1.3060701621249762
0.5598032296571749	1.3444374867789615
0.5616692404226988	1.377681751422914
0.5635414712241079	1.4099848947392062
0.5654199427948549	1.4335549079024354
0.5673046759375044	1.414239261114594
0.569195691523963	1.3908080693104186
0.5710930104957095	1.4179453577970413
0.5729966538640286	1.4454419522021442
0.5749066427102419	1.4277157917701762
0.576822998185943	1.3791693593212933
0.5787457415132294	1.338615334047454
0.5806748939849402	1.2575203495940162
0.58261047696489	1.1351777904023577
0.5845525118881064	0.963568411826104
0.5865010202610669	0.6302494533871632
0.588456023661937	0.22154181165086204
0.5904175437408102	0.20148183924149274
0.5923856022199464	0.7052577000545579
0.5943602208940129	1.390935881880864
0.5963414216303263	2.0713142608634367
0.598329226369094	2.76906653839294
0.6003236571236578	3.6093363534196286
0.6023247359807368	4.5977737388080255
0.6043324851006725	5.756657585547893
0.6063469267176749	7.101994257688364
0.6083680831400672	8.63089042874905
0.610395976750534	10.388336088771423
0.6124306300063692	12.336975438125014
0.6144720654397238	14.58158826072663
0.6165203056578563	17.032455458784074
0.6185753733433824	19.78832472038597
0.6206372912545272	22.81981696697681
0.6227060822253756	26.13020838688359
0.6247817691661269	29.660644836163584
0.6268643750633474	32.99607452681463
0.6289539229802253	37.31593414020022
0.6310504360568261	42.742606662202924
0.6331539375103489	48.06266072804912
0.6352644506353834	55.308722752429574
0.6373819988041681	61.5718682884889
0.6395066054668487	67.36424129787999
0.6416382941517382	76.51666269349614
0.6437770884655775	83.26086274464109
0.6459230120937961	80.70201735695295
0.6480760888007754	89.66944213740695
0.6502363424301114	112.82536613064724
0.6524037969048785	130.25074433817977
0.6545784762278948	145.66746947057197
0.6567604044819878	161.57714180638067
0.6589496058302612	186.53802500658279
0.6611461045163621	210.65703803515876
0.66334992486475	243.27027961437358
0.6655610912809659	275.4947667712799
0.6677796282519025	317.5537719373166
0.6700055603460756	349.66463721396343
0.6722389122138959	394.1955474569123
0.6744797085879423	455.2218080246039
0.6767279742832354	500.2137520210685
0.6789837341975129	537.9780236831364
0.6812470133115047	569.6898097597428
0.6835178366892097	590.5128274222003
0.6857962294781739	587.1958472472169
0.6880822169097679	561.0425057299466
0.6903758242994671	495.8332865623456
0.6926770770471321	381.63082317920134
0.6949860006372892	380.84139349195823
0.6973026206394136	446.16489499268795
0.6996269627082117	437.4442435178681
0.7019590525839058	384.7499639987099
0.7042989160925188	415.74208295850235
0.7066465791461606	460.12982849439675
0.7090020677433145	476.75738101092173
0.7113654079691256	497.597049303771
0.7137366259956894	496.8639065030504
0.7161157480823418	377.71527507356194
0.7185028005759496	283.8201877527602
0.7208978099112028	316.229071250345
0.7233008026109069	378.8213711850457
0.7257118052862767	381.9992354023666
0.728130844637231	407.5275319390038
0.7305579474526884	368.3352951143577
0.7329931406108642	366.2652073584064
0.7354364510795671	374.64953911422947
0.7378879059164991	461.66934948472357
0.7403475322695541	593.9651309960763
0.7428153573771193	687.1668034779198
0.7452914085683765	747.1219169721107
0.7477757132636044	823.5224795395183
0.7502682989744831	848.9459686655206
0.7527691933043982	879.9747989188427
0.7552784239487462	920.1758658549757
0.7577960186952422	954.4105231966813
0.7603220054242263	940.644216355188
0.7628564121089738	780.9231183746782
0.7653992668160038	401.8410495567874
0.7679505977053904	227.72997901069996
0.7705104330310751	361.71464608601866
0.7730788011411788	728.5045034874454
0.7756557304783162	1077.2295647199148
0.7782412495799106	1275.010377184292
0.7808353870785104	1366.8151476105581
0.7834381717021055	1571.394891894425
0.7860496322744459	1609.785832107922
0.7886697977153608	1797.9172069356491
0.7912986970410787	2192.325900891204
0.793936359364549	2266.9668507876713
0.7965828138957642	2321.4922855341642
0.7992380899420836	2617.3549980431612
0.8019022169085571	3001.9337281137387
0.8045752242982523	3300.994963012913
0.80725714171258	3348.386090107661
0.809947998851622	2694.6453376531795
0.8126478255144608	1943.185472863397
0.8153566515995091	1652.5657820265044
0.8180745071048409	2289.830316000093
0.8208014221285237	3362.6436882947996
0.8235374268689521	3526.6497513621657
0.8262825516251822	4332.585844549707
0.8290368267972661	4247.426816519116
0.8318002828865904	4072.4426689391144
0.8345729504962124	3754.472680081377
0.8373548603311998	3950.7370752449756
0.8401460431989706	5604.981766487967
0.8429465300096338	5993.939141446631
0.8457563517763327	6851.7747864793655
0.8485755396155872	7905.20323284555
0.8514041247476393	8616.05407065128
0.8542421384967981	9761.286192295007
0.8570896122917875	11165.40674105871
0.8599465776660935	12459.628058692775
0.8628130662583139	13338.312796491451
0.8656891098125085	13999.472687837433
0.8685747401785502	14263.435871368816
0.8714699893124788	14432.529181829905
0.8743748892768537	14995.46972110124
0.8772894722411099	15529.585895341272
0.8802137704819137	15113.480895201452
0.8831478163835201	13810.42297700569
0.8860916424381319	10095.629585641107
0.8890452812462591	4315.776191727341
0.89200876551708	1377.3719591342044
0.8949821280688037	2162.1906104356867
0.8979654018290332	2436.1008375667593
0.90095861983513	2421.61844802317
0.9039618152345804	4962.6161802366805
0.9069750212853626	5085.849655497438
0.9099982713563137	6030.753904306703
0.9130315989275016	8550.497026028848
0.9160750375905932	9117.40075933873
0.9191286210492287	15148.050875858347
0.9221923831193928	26226.94097354037
0.9252663577297908	21174.104805428295
0.9283505789222235	7009.997841924251
0.9314450808519644	886.5090949698385
0.9345498977881376	701.6980330931307
0.9376650641140981	2188.2172391720155
0.940790614327812	5184.025538722915
0.9439265830422381	6211.381545073771
0.9470730049857122	6481.909524794226
0.9502299150023314	3935.222029322001
0.9533973480523392	3579.9256541653313
0.9565753392125138	4305.310626661025
0.9597639236765556	3775.452859038866
0.9629631367554774	2480.0498869757225
0.9661730138779958	8811.76502476771
0.9693935905909224	18144.409372542756
0.972624902559559	20530.816903335854
0.9758669855680909	17022.780976127204
0.9791198755199847	17115.951847350978
0.9823836084383848	14901.475429034152
0.9856582204665127	20838.62917746968
0.9889437478680678	28610.08312852091
0.9922402270276282	27345.39479244615
0.9955476944510537	27139.31213874522
0.9988661867658906	28509.660007983515
1.002195740721777	26635.46485965011
1.0055363931908496	31755.61491103075
1.0088881811681525	37699.26934599562
1.0122511417720463	43141.82971994558
1.01562531224462	30336.11931204247
1.019010729952102	19240.37548898708
1.0224074323852759	21800.87366606186
1.0258154571598936	36046.74620986415
1.0292348420170931	44088.75768982382
1.0326656248238169	37716.22121413069
1.0361078435732296	28398.475021432834
1.0395615363851405	50334.29360614973
1.0430267415064245	91082.55776743057
1.0465034973114462	107014.1321772013
1.0499918423024843	97592.64887718721
1.0534918151101593	141100.90787633683
1.05700345449386	212459.29439469366
1.0605267993421728	248422.5853103247
1.0640618886733135	263985.4465569535
1.067608761635558	258780.31081525097
1.0711674575076766	256722.45151267803
1.0747380156993689	230438.78443865004
1.0783204757517002	191194.44199408893
1.0819148773375393	178140.4482289996
1.085521260261998	157571.89188874108
1.0891396644628712	133154.57489995228
1.092770130011081	92581.61043746248
1.0964126971111179	47382.754507372134
1.1000674061014886	33074.00360036242
1.10373429745516	25461.947559922148
1.1074134117800107	7537.247801488181
1.1111047898192774	2269.234704380969
1.1148084724520084	1549.108631109742
1.1185245006935154	990.7889356383226
1.1222529156958272	1126.2532097387143
1.1259937587481466	1197.204227668625
1.1297470712773072	1144.1275836093507
1.1335128948482316	507.4964876069619
1.1372912711643925	1198.6777530278491
1.1410822420682738	2761.776360020812
1.1448858495418348	2099.0786391064275
1.1487021357069744	688.0812206136491
1.1525311428259977	192.221405284951
1.1563729133020846	48.74872874846586
1.1602274896797582	27.1863657400628
1.1640949146453576	345.71641243114715
1.1679752310275089	1136.9284550591694
1.1718684817976006	564.4193425816836
1.1757747100702594	173.1625771515635
1.1796939591038271	698.7716346857245
1.1836262723008397	710.2486262051408
1.1875716932085094	582.7480510098561
1.1915302655192046	748.4187622862003
1.1955020330709352	1658.3628762008143
1.1994870398478386	4130.853968291503
1.2034853299806647	5606.539110041228
1.207496947747267	5416.776149344283
1.2115219375730912	6892.6657800308385
1.2155603440316685	7843.090962450522
1.2196122118451074	10708.084674716054
1.2236775858845912	14448.012427696973
1.2277565111708733	32524.64714260922
1.2318490328747762	51345.60689349602
1.2359551963176922	67139.70189858017
1.2400750469720847	112698.59745917657
1.2442086304619917	171094.12706885565
1.248355992563532	207634.98919494552
1.2525171792054102	217018.0553186629
1.2566922364694284	259280.29346203216
1.2608812105909932	335221.3893568646
1.2650841479596302	392777.3407095002
1.2693010951194956	445216.3309626203
1.273532098769894	378589.18487766787
1.2777772057657937	233192.1900559466
1.2820364631183463	144081.37146406225
1.2863099179954076	78239.06603567259
1.2905976177220593	55176.97206562235
1.2948996097811327	49061.95488535201
1.2992159418137368	45511.118860178496
1.3035466616197826	35027.795368786334
1.3078918171585154	24564.84349581386
1.3122514565490437	11058.434131450682
1.3166256280708741	11382.142631558798
1.3210143801644436	12491.825536695193
1.3254177614316587	9586.006781558382
1.329835820636431	4293.5975965157595
1.3342686067052192	1636.8292544518265
1.33871616872757	720.1269856302943
1.343178555956662	205.4428658021197
1.347655817809851	35.82977236546337
1.352148003869217	17.358517744372552
1.3566551638821147	8.980585322592386
1.3611773477617217	2.1533769213086935
1.3657146055875944	1.6671704711563615
1.3702669876062197	2.021989778428552
1.3748345442315741	7.725860598925172
1.3794173260456792	11.867049877925396
1.384015383799165	3.5915876642687845
1.388628768411829	4.609413494489496
1.3932575309732018	8.237434981067377
1.3979017227431125	12.387692720523768
1.4025613951522564	35.285484954664426
1.407236599802764	35.81605051133413
1.4119273884687735	46.676074538948484
1.4166338130970026	36.04276935727927
1.4213559258073263	40.76130995144277
1.4260937788933508	77.7656638510687
1.4308474248229952	90.7050573723402
1.4356169162390722	118.71984197567342
1.4404023059598692	473.30163352448614
1.4452036469797356	808.2489510603565
1.450020992469668	830.1785437653001
1.4548543957779003	682.1624041506901
1.4597039104304934	704.7142365570523
1.4645695901319284	734.3977817754844
1.469451488765702	319.6876639438158
1.4743496603949209	57.850257081277036
1.479264159262904	46.96220537793445
1.4841950397937806	62.07159593704292
1.4891423565930935	88.35011130783141
1.4941061644484037	154.83966601070685
1.4990865183298985	232.11480626226248
1.5040834733909982	189.66674271947758
1.5090970849689684	252.49332667331086
1.5141274085855316	80.3433492210604
1.5191744999474837	135.28588882350485
1.5242384149473087	395.8152009034851
1.5293192096638	996.4506793071937
1.5344169403626793	927.5483679889655
1.5395316634972218	1520.0090760568207
1.544663435708879	1875.6510248731718
1.5498123138279087	3239.4981544080047
1.554978354874002	6286.089793306729
1.5601616160569156	7704.942965373592
1.5653621547771055	17035.934524973974
1.5705800286263625	40282.63159417077
1.5758152953884506	58198.64127265741
1.5810680130397454	72174.81879810819
1.5863382397498782	87780.53703472816
1.5916260338823778	123415.03826847396
1.5969314539953192	112154.9826644353
1.6022545588419705	71384.0407021562
1.6075954073714436	39694.92931747826
1.6129540587293487	18412.41512623239
1.6183305722584467	7807.182650760948
1.6237250074993084	4346.529803350583
1.6291374241909726	2882.2587305326488
1.6345678822716092	2253.7228311285935
1.6400164418791816	913.3413658895137
1.6454831633521123	1115.5233366898974
1.6509681072299527	1241.9292527503449
1.6564713342540527	2451.196041409153
1.6619929053682332	4234.203549682519
1.6675328817194608	1808.7355763738465
1.6730913246585257	358.59199882172857
1.6786682957407209	1662.7765297938317
1.6842638567265233	2441.187466304417
1.6898780695822784	1257.0438743504042
1.6955109964808863	214.13300429582725
1.7011626998024894	255.32958068647588
1.7068332421351646	824.5918929757594
1.7125226862756153	1153.194502739722
1.7182310952298672	1805.7590621925426
1.7239585322139668	1646.0425915300455
1.7297050606546804	454.6509534449911
1.7354707441901962	734.1336105908847
1.7412556466708302	1288.1215425553391
1.747059832159733	2084.7005665903744
1.752883364933599	2843.7177442893867
1.7587263094833776	1786.3252427267125
1.7645887305149892	1216.962154281959
1.7704706929500391	1068.2827312529134
1.7763722619265396	2237.5870959943636
1.7822935027996283	2137.301706027715
1.7882344811422937	1252.1101746659501
1.7941952627461015	625.6664064549616
1.8001759136219222	445.6820197752524
1.8061765000006618	422.3566997484465
1.8121970883339975	487.43454922320745
1.818237745295111	849.5496815259793
1.8242985377794283	1417.3623324298649
1.8303795329053596	532.589730787548
1.8364807980150446	124.61623729413733
1.8426024006750947	438.85278505780497
1.8487444086773455	700.3362805470525
1.8549068900396033	535.6886348466069
1.861089913006402	219.18469666629105
1.8672935460497566	86.73054684713566
1.873517857869923	76.67717363552141
1.879762917396156	589.7600950700864
1.8860287937874767	1166.017374927599
1.8923155564334353	1390.4117258003741
1.8986232749548801	1197.7826833774586
1.9049520192047298	452.61687453893245
1.9113018592687456	356.68680596170867
1.9176728654663082	176.89732873600857
1.9240651083511964	205.4064717825223
1.9304786587123668	79.59076205915957
1.9369135875747419	15.815650841184887
1.9433699661999908	21.5043701395417
1.9498478660873244	19.520889995854613
1.9563473589742824	77.27951894670946
1.9628685168375302	345.2605278019029
1.9694114118936552	577.2885257282198
1.9759761165999676	848.0821987898516
1.9825627036553009	1000.6414928290878
1.9891712460008188	1200.4111488628953
1.9958018168208218	1601.4158512253653
2.002454489543558	1650.891309745591
2.0091293378420367	1306.1788144218638
2.0158264356348434	1000.208282913587
2.02254585708696	924.7952416705781
2.029287676610583	1934.9192187526041
2.036051968865952	2311.1553628690526
2.042838808762172	2853.6489035119635
2.049648271458046	3481.775031001229
2.0564804323629065	4498.764920246482
2.0633353671374497	6036.768503108827
2.0702131516945745	8067.838783044475
2.0771138622002234	7470.914689737589
2.084037575074224	7210.68519603558
2.0909843669911385	7123.7705106942085
2.097954314881109	7042.225987105176
2.1049474959307126	7999.022848020011
2.1119639875838154	8838.763135749457
2.1190038675424283	8008.123014234906
2.12606721376757	7719.769877689151
2.1331541044801288	7206.1423595355045
2.140264618161729	5828.911158744756
2.147398833555602	5084.378697065081
2.154556829667454	4361.012366308584
2.1617386857663456	3029.5182944895973
2.1689444813855667	2850.9588331942687
2.176174296323519	2669.9526056306076
2.1834282106445975	2337.6759298890806
2.19070630468008	1090.4373227672288
2.1980086590290138	186.50584576253965
2.2053353545591103	159.54847877845353
2.2126864724076407	375.6424781777341
2.220062093982333	228.02512519555364
2.2274623009622747	119.8782482273395
2.2348871752988155	81.07286860483909
2.2423367992164787	43.20493367167063
2.2498112552138667	26.737088651231993
2.25731062606458	22.53222724121708
2.2648349948181288	9.321229541016818
2.272384444800856	18.680174064839804
2.2799590596168593	44.14059312035682
2.2875589231489153	28.15423717335631
2.295184119559412	22.77635058954685
2.302834733291277	90.07439545199479
2.3105108490689146	181.66887785856164
2.3182125518991445	93.97650980593775
2.325939927072142	22.664005294072883
2.3336930601623824	21.384311943830202
2.341472037029591	8.08203603020281
2.3492769438196897	12.213315577942165
2.3571078669657557	104.32865435181132
