#wavelength (micron)	surface_flux (erg / (cm2 micron s))
0.40133895199999997	3.7012654771422795e-05
0.40267674850666674	4.764903890651668e-05
0.40401900433502225	1.7714979634281078e-05
0.4053657343494724	2.0804490784437233e-05
0.4067169534639707	8.857559623424378e-05
0.40807267664218394	0.00023741704946697565
0.4094329188976579	0.0004922697977710484
0.41079769529398347	0.0008448890529213723
0.41216702094496344	0.0012949401157555725
0.41354091101477997	0.0019041916661149706
0.4149193807181627	0.002474160151359151
0.41630244532055655	0.0030905430328747015
0.41769012013829176	0.0038467421684645385
0.41908242053875283	0.0034283314130803817
0.4204793619405487	0.0018933375724796227
0.42188095981368384	0.0038312357755561854
0.42328722967972954	0.009919247210085962
0.4246981871119953	0.015280149079270122
0.42611384773570193	0.019629979862867703
0.4275342272281543	0.02544160202687223
0.4289593413189149	0.0316602510548919
0.43038920578997797	0.0387792946351752
0.4318238364759446	0.047475867068225985
0.43326324926419774	0.056982923612898
0.4347074600950785	0.06706085014416809
0.4361564849620621	0.0780544109856416
0.43761033991193565	0.08823498806611266
0.4390690410449755	0.09432328101084851
0.44053260451512544	0.10418934244206522
0.4420010465301759	0.11166653497493934
0.44347438335194317	0.12409057327047164
0.4449526312964497	0.14840141576375204
0.44643580673410455	0.17315087985464048
0.44792392608988496	0.2013083657949812
0.4494170058435179	0.24100120366793246
0.450915062529663	0.2911909945692378
0.4524181127380953	0.3477036857869121
0.45392617311388894	0.3831363590374494
0.45543926035760196	0.36329334224517623
0.45695739122546064	0.3629732309847837
0.4584805825295456	0.30595899877526106
0.46000885113797746	0.2857618403583311
0.46154221397510403	0.2907149498594543
0.4630806880216877	0.2780128921251163
0.4646242903150934	0.2634959595703755
0.4661730379494771	0.23416002098214445
0.4677269480759754	0.20150478705520256
0.4692860379028953	0.17615323950478795
0.47085032469590504	0.15919568688988078
0.4724198257782247	0.1435217348081812
0.47399455853081884	0.12564614480591005
0.4755745403925883	0.11734634880059684
0.4771597888605636	0.1097492605771083
0.47875032149009894	0.10270040424483459
0.4803461558950659	0.09196296923615778
0.48194730974804956	0.07848681180595943
0.48355380078054305	0.0639722416235786
0.4851656467831449	0.04834183894667821
0.48678286560575545	0.04276307293008918
0.4884054751577746	0.04072231888162425
0.4900334934083006	0.03714182790353049
0.4916669383863283	0.0351559188847231
0.4933058281809494	0.033268051080082746
0.4949501809415526	0.031229774724257454
0.4966000148780246	0.02947948147659454
0.4982553482609513	0.026241629689615006
0.4999161994218212	0.023233435709694026
0.5015825867532273	0.019810140125604753
0.5032545287090715	0.015777676256764232
0.5049320438047684	0.014762440474670237
0.506615150617451	0.018628165084584862
0.5083038677861758	0.020343742151550753
0.5099982140121297	0.021779424030051255
0.5116982080588369	0.023887909003882976
0.5134038687523664	0.02613287487454877
0.515115214981541	0.028408899905409412
0.5168322656981462	0.0302708264430616
0.5185550399171401	0.03374681137280041
0.5202835567168639	0.03678620348741138
0.5220178352392535	0.03913230970921008
0.5237578946900511	0.04088736044441066
0.525503754339018	0.04341513155269925
0.527255433520148	0.045812009182927035
0.5290129516318819	0.047981337358187
0.5307763281373216	0.0507816620658261
0.532545582564446	0.05429466752145198
0.5343207345063276	0.057419978676121926
0.5361018036213486	0.05944530122292586
0.5378888096334199	0.06203052583771559
0.5396817723321979	0.0637504706596294
0.5414807115733054	0.06476029820199604
0.5432856472785497	0.06956949807325846
0.545096599436145	0.07069435860937653
0.5469135881009322	0.06884606877430137
0.5487366333946019	0.07820631294341761
0.5505657555059172	0.08776224258617138
0.5524009746909371	0.09556158164763404
0.5542423112732402	0.10125260568271593
0.556089785644151	0.10836799876325419
0.557943418262965	0.11518857267676487
0.5598032296571749	0.12033303356787767
0.5616692404226988	0.12356145669153305
0.5635414712241079	0.12823889905116792
0.5654199427948549	0.12955076569971669
0.5673046759375044	0.11225754291212246
0.569195691523963	0.09728164340638369
0.5710930104957095	0.10694484023862345
0.5729966538640286	0.1173088486007449
0.5749066427102419	0.1140098504671186
0.576822998185943	0.10360938939301696
0.5787457415132294	0.10509119613539607
0.5806748939849402	0.09761077858222784
0.58261047696489	0.08230069294388268
0.5845525118881064	0.06738724766974569
0.5865010202610669	0.03782754531145137
0.588456023661937	0.009836007808276306
0.5904175437408102	0.007131716820444622
0.5923856022199464	0.029470345206341633
0.5943602208940129	0.07289349121097241
0.5963414216303263	0.12206765979099832
0.598329226369094	0.16391497428532192
0.6003236571236578	0.24129717357543942
0.6023247359807368	0.3631164890858055
0.6043324851006725	0.5244614103689864
0.6063469267176749	0.7157502165697337
0.6083680831400672	0.9216333545996599
0.610395976750534	1.1719876210658318
0.6124306300063692	1.4300816781510188
0.6144720654397238	3.5421823649907216
0.6165203056578563	1.814699705699173
0.6185753733433824	2.4517880228959905
0.6206372912545272	2.851631975346212
0.6227060822253756	3.2595197514283782
0.6247817691661269	3.626486480809051
0.6268643750633474	3.8112281036685944
0.6289539229802253	4.287290864671907
0.6310504360568261	5.031986546530239
0.6331539375103489	5.5601577765221295
0.6352644506353834	6.748522000497346
0.6373819988041681	7.261093876667986
0.6395066054668487	7.330506069737263
0.6416382941517382	8.419452419580782
0.6437770884655775	8.561912150673162
0.6459230120937961	6.262074415851642
0.6480760888007754	6.297526624838037
0.6502363424301114	9.794952740478145
0.6524037969048785	12.010990831655889
0.6545784762278948	13.529798082682353
0.6567604044819878	14.472339888753684
0.6589496058302612	17.665499277534323
0.6611461045163621	20.55905493151542
0.66334992486475	25.36254847678336
0.6655610912809659	29.323340656270524
0.6677796282519025	36.331100408757614
0.6700055603460756	42.14924558032942
0.6722389122138959	48.87748477719838
0.6744797085879423	57.25482730563523
0.6767279742832354	62.964145709372154
0.6789837341975129	67.11404420181645
0.6812470133115047	71.2540419638525
0.6835178366892097	75.45088639531384
0.6857962294781739	74.93387835021103
0.6880822169097679	69.70920040007904
0.6903758242994671	54.80852362197708
0.6926770770471321	27.948670217197797
0.6949860006372892	28.825556806284926
0.6973026206394136	42.481657491352216
0.6996269627082117	39.77711379027781
0.7019590525839058	24.938924957413352
0.7042989160925188	29.897298508515693
0.7066465791461606	35.0690504069415
0.7090020677433145	35.99519579247012
0.7113654079691256	39.77151483320906
0.7137366259956894	38.24680945976906
0.7161157480823418	18.80620692271827
0.7185028005759496	5.383119608012567
0.7208978099112028	7.551537177164141
0.7233008026109069	12.610268200659293
0.7257118052862767	14.331749594437628
0.728130844637231	16.75483955202964
0.7305579474526884	12.701717209245535
0.7329931406108642	16.167029842208034
0.7354364510795671	14.15566725944899
0.7378879059164991	22.77714732845887
0.7403475322695541	49.57055563571744
0.7428153573771193	78.10441250670733
0.7452914085683765	95.21987007274025
0.7477757132636044	124.08182031752268
0.7502682989744831	139.66210889700443
0.7527691933043982	157.37664359863314
0.7552784239487462	183.53572448195897
0.7577960186952422	208.47278521445892
0.7603220054242263	215.47515819117098
0.7628564121089738	190.0670145330578
0.7653992668160038	101.52743455456861
0.7679505977053904	56.65195936587278
0.7705104330310751	95.3217655066954
0.7730788011411788	194.97237578223857
0.7756557304783162	277.5588830697751
0.7782412495799106	305.93117774708566
0.7808353870785104	289.26815189110584
0.7834381717021055	280.4461644220981
0.7860496322744459	215.84262178421466
0.7886697977153608	234.39059219214403
0.7912986970410787	348.20810275124666
0.793936359364549	368.063788703563
0.7965828138957642	318.6618015682351
0.7992380899420836	308.58013536722143
0.8019022169085571	369.9620848803253
0.8045752242982523	404.5382667089593
0.80725714171258	369.35466642952645
0.809947998851622	193.91092370770855
0.8126478255144608	59.02785153797545
0.8153566515995091	40.90411134224311
0.8180745071048409	84.63808230185818
0.8208014221285237	148.472773315214
0.8235374268689521	149.38776315541816
0.8262825516251822	185.39271624982175
0.8290368267972661	176.80201617286414
0.8318002828865904	149.29250813771603
0.8345729504962124	101.51170251537846
0.8373548603311998	106.71044028994069
0.8401460431989706	176.94415113436173
0.8429465300096338	192.67906716571372
0.8457563517763327	241.78615565555222
0.8485755396155872	271.75969915285174
0.8514041247476393	318.1240935603721
0.8542421384967981	376.32014387933907
0.8570896122917875	438.36128888347827
0.8599465776660935	508.64809123624906
0.8628130662583139	516.0239948690873
0.8656891098125085	475.7324224492156
0.8685747401785502	376.6454447701945
0.8714699893124788	289.84508726227165
0.8743748892768537	241.30277856420787
0.8772894722411099	202.06214081010532
0.8802137704819137	137.26788637969975
0.8831478163835201	82.11712020077545
0.8860916424381319	35.33142814854274
0.8890452812462591	4.0340348857316775
0.89200876551708	0.12046090130816202
0.8949821280688037	0.13642464522434664
0.8979654018290332	0.12510240279402002
0.90095861983513	0.2248548823650797
0.9039618152345804	0.6467012906204264
0.9069750212853626	0.5035580442321237
0.9099982713563137	1.2130075165747212
0.9130315989275016	3.439105486790117
0.9160750375905932	6.588702977010203
0.9191286210492287	35.329523029975164
0.9221923831193928	79.77121821861745
0.9252663577297908	51.74957172750426
0.9283505789222235	8.791767673912497
0.9314450808519644	0.21956282837134142
0.9345498977881376	0.034635126171417445
0.9376650641140981	0.3167116913088159
0.940790614327812	0.8420722869886549
0.9439265830422381	1.0784408721740049
0.9470730049857122	1.717622049449554
0.9502299150023314	1.4439094059376312
0.9533973480523392	0.9311599659258257
0.9565753392125138	1.2918755886163678
0.9597639236765556	1.0474144827831549
0.9629631367554774	1.837819646327037
0.9661730138779958	17.38528018375679
0.9693935905909224	29.395999786646474
0.972624902559559	20.724024076846113
0.9758669855680909	10.459909609150268
0.9791198755199847	5.7444456339828385
0.9823836084383848	3.995385134908635
0.9856582204665127	4.940331939238886
0.9889437478680678	5.91388220737541
0.9922402270276282	6.2608072150339815
0.9955476944510537	5.0152710855038505
0.9988661867658906	4.187460626103834
1.002195740721777	3.343588839766729
1.0055363931908496	2.5281401849138407
1.0088881811681525	2.146356737009697
1.0122511417720463	2.5897137440968723
1.01562531224462	1.1552862255249492
1.019010729952102	0.24391414085005897
1.0224074323852759	0.20224920627086432
1.0258154571598936	0.4337792647362453
1.0292348420170931	0.6416968036824507
1.0326656248238169	0.4262346131263304
1.0361078435732296	0.41351271235167175
1.0395615363851405	2.4599847476479377
1.0430267415064245	8.113365593388677
1.0465034973114462	11.711576892339558
1.0499918423024843	10.306710880672613
1.0534918151101593	45.13397492419093
1.05700345449386	114.89319185420337
1.0605267993421728	165.98931438630302
1.0640618886733135	213.93963532914103
1.067608761635558	230.98227329547103
1.0711674575076766	233.95062669105428
1.0747380156993689	191.56877408590174
1.0783204757517002	153.02758910738902
1.0819148773375393	122.77246674800617
1.085521260261998	88.0127367973208
1.0891396644628712	75.22230089427867
1.092770130011081	54.46527659434365
1.0964126971111179	22.565057454549354
1.1000674061014886	16.595844836058344
1.10373429745516	16.333864416229755
1.1074134117800107	4.868325791086778
1.1111047898192774	0.9519727527318289
1.1148084724520084	0.38464751031121885
1.1185245006935154	0.06064400063168761
1.1222529156958272	0.027144305221535544
1.1259937587481466	0.029131421329067448
1.1297470712773072	0.04567514395497521
1.1335128948482316	0.02952928325809469
1.1372912711643925	0.09416619209020156
1.1410822420682738	0.30741947539166437
1.1448858495418348	0.23680289506510768
1.1487021357069744	0.04852248663691827
1.1525311428259977	0.009835202723294986
1.1563729133020846	0.001330710457595366
1.1602274896797582	0.00021181582676542247
1.1640949146453576	0.020338858531144532
1.1679752310275089	0.0766894668757366
1.1718684817976006	0.03082875709441041
1.1757747100702594	0.0027508752661850057
1.1796939591038271	0.011617604229532235
1.1836262723008397	0.010758152748635265
1.1875716932085094	0.003813784399227785
1.1915302655192046	0.007080577812776455
1.1955020330709352	0.05020643845935587
1.1994870398478386	0.15494158926032808
1.2034853299806647	0.12572832940184894
1.207496947747267	0.0801245852707014
1.2115219375730912	0.14343462402413873
1.2155603440316685	0.15199381809712403
1.2196122118451074	0.22012159249851038
1.2236775858845912	0.3112994737964998
1.2277565111708733	2.218645942352532
1.2318490328747762	4.176447866240271
1.2359551963176922	5.605431890792711
1.2400750469720847	25.45620658124094
1.2442086304619917	59.376760274584804
1.248355992563532	82.74236176368534
1.2525171792054102	71.45319920628383
1.2566922364694284	74.1249843416631
1.2608812105909932	165.84572061016104
1.2650841479596302	350.90467005292976
1.2693010951194956	579.8301639724748
1.273532098769894	372.1411993565237
1.2777772057657937	98.29744202979204
1.2820364631183463	49.671106496073236
1.2863099179954076	23.73068755978468
1.2905976177220593	14.025316120927526
1.2948996097811327	12.043115330761962
1.2992159418137368	6.932787297140423
1.3035466616197826	5.24779765882345
1.3078918171585154	4.017296629359216
1.3122514565490437	1.5485373508958153
1.3166256280708741	1.7301182155198094
1.3210143801644436	1.8327828904945938
1.3254177614316587	1.2990141223490324
1.329835820636431	0.5106495915278341
1.3342686067052192	0.30497350288740666
1.33871616872757	0.17378449792732142
1.343178555956662	0.03412260094899952
1.347655817809851	0.009271942435523883
1.352148003869217	0.001366498683524079
1.3566551638821147	0.0004993763657290986
1.3611773477617217	2.940723656443352e-05
1.3657146055875944	1.597357558234803e-05
1.3702669876062197	1.5045602340654472e-05
1.3748345442315741	0.00013351843886479244
1.3794173260456792	0.00020375582521348168
1.384015383799165	3.6805278511488385e-05
1.388628768411829	2.9773088924878086e-05
1.3932575309732018	7.420804413785752e-05
1.3979017227431125	0.00029494830768464904
1.4025613951522564	0.0008590420373332763
1.407236599802764	0.0012849567478558821
1.4119273884687735	0.003790845163616246
1.4166338130970026	0.0044367082315859485
1.4213559258073263	0.005264784485861799
1.4260937788933508	0.008090110375086517
1.4308474248229952	0.0069459298881273225
1.4356169162390722	0.009497761126133084
1.4404023059598692	0.08038299505387776
1.4452036469797356	0.22667539482588345
1.450020992469668	0.3862880770417755
1.4548543957779003	0.3514318249863295
1.4597039104304934	0.23757502851378692
1.4645695901319284	0.14285333749715365
1.469451488765702	0.034744566093925074
1.4743496603949209	0.004341539321055609
1.479264159262904	0.003303467582928948
1.4841950397937806	0.002632619892367716
1.4891423565930935	0.007332658315870059
1.4941061644484037	0.012738104155897162
1.4990865183298985	0.007343740768313349
1.5040834733909982	0.010697263257104945
1.5090970849689684	0.02262772824065441
1.5141274085855316	0.005378453903402051
1.5191744999474837	0.004633523562919097
1.5242384149473087	0.04357941903534623
1.5293192096638	0.18893124908090989
1.5344169403626793	0.14367052143082717
1.5395316634972218	0.25721101101781957
1.544663435708879	0.26335125084137395
1.5498123138279087	0.47218504440949627
1.554978354874002	1.8916151926994882
1.5601616160569156	3.799380807584525
1.5653621547771055	12.71445126510204
1.5705800286263625	45.404086861401815
1.5758152953884506	86.95831163650527
1.5810680130397454	103.03957675015877
1.5863382397498782	131.72526706552668
1.5916260338823778	255.32150075107222
1.5969314539953192	292.54505197921634
1.6022545588419705	235.57627561831774
1.6075954073714436	117.39520261931773
1.6129540587293487	38.71404139149513
1.6183305722584467	9.58618168974704
1.6237250074993084	5.815567478774816
1.6291374241909726	2.2823637638485343
1.6345678822716092	1.3777357710939087
1.6400164418791816	0.2345327754927725
1.6454831633521123	0.1524897121178939
1.6509681072299527	0.0762210917108071
1.6564713342540527	1.63969144813603
1.6619929053682332	3.7663835798538674
1.6675328817194608	1.2051908266338147
1.6730913246585257	0.2539722071664937
1.6786682957407209	1.9309974525181157
1.6842638567265233	1.8572942933758603
1.6898780695822784	0.48297221445335964
1.6955109964808863	0.022369769035658755
1.7011626998024894	0.03267947530468708
1.7068332421351646	0.48333943054784023
1.7125226862756153	0.8144651832103488
1.7182310952298672	1.0660013059353552
1.7239585322139668	0.7030465729585496
1.7297050606546804	0.05313061046511233
1.7354707441901962	0.32497483748193096
1.7412556466708302	1.0797163606675986
1.747059832159733	0.9436889988372341
1.752883364933599	1.1662404204012875
1.7587263094833776	0.6781213571285342
1.7645887305149892	0.38560354010964615
1.7704706929500391	0.508818718600788
1.7763722619265396	2.835893748101928
1.7822935027996283	4.078611661227001
1.7882344811422937	1.159611497311945
1.7941952627461015	0.30597877029199244
1.8001759136219222	0.1568287009269568
1.8061765000006618	0.3197043326507185
1.8121970883339975	0.37082074874782994
1.818237745295111	0.5761704428245619
1.8242985377794283	1.275279553808242
1.8303795329053596	0.4571589045982341
1.8364807980150446	0.047581385571791125
1.8426024006750947	0.23081401743676705
1.8487444086773455	0.27486391433022966
1.8549068900396033	0.1401645270392161
1.861089913006402	0.08421386020151464
1.8672935460497566	0.025509638403377083
1.873517857869923	0.021911345185857894
1.879762917396156	0.2922422881329829
1.8860287937874767	0.7258086917422304
1.8923155564334353	0.7311803663670488
1.8986232749548801	0.4557891189603773
1.9049520192047298	0.17095031312625264
1.9113018592687456	0.1486503796081054
1.9176728654663082	0.10486586873367221
1.9240651083511964	0.17951637370628742
1.9304786587123668	0.047607760747363684
1.9369135875747419	0.0021818436154527137
1.9433699661999908	0.002464595670724647
1.9498478660873244	0.0004396594927488749
1.9563473589742824	0.03457878063595044
1.9628685168375302	0.1783993856520006
1.9694114118936552	0.28782665515995465
1.9759761165999676	0.4404714540014242
1.9825627036553009	0.40697960709256337
1.9891712460008188	0.5557337523447066
1.9958018168208218	1.0866931686239647
2.002454489543558	1.1775219421616707
2.0091293378420367	0.6329478327985947
2.0158264356348434	0.37559613942295444
2.02254585708696	0.7237542940429695
2.029287676610583	2.019052670971348
2.036051968865952	2.2852803821462677
2.042838808762172	2.3834597029914746
2.049648271458046	2.6152701445608235
2.0564804323629065	4.015210303652206
2.0633353671374497	5.058624683660514
2.0702131516945745	5.879173914835381
2.0771138622002234	4.987685425297436
2.084037575074224	4.521203067512397
2.0909843669911385	4.165096283792356
2.097954314881109	3.7320239978649963
2.1049474959307126	4.0716633585222
2.1119639875838154	4.720495731158023
2.1190038675424283	4.450737155086032
2.12606721376757	4.736085529031822
2.1331541044801288	4.904716102017977
2.140264618161729	4.01500674763134
2.147398833555602	3.698782382328968
2.154556829667454	3.5812567267110476
2.1617386857663456	2.223558857204446
2.1689444813855667	2.291608092140992
2.176174296323519	2.7877214891190443
2.1834282106445975	2.431595578520863
2.19070630468008	1.2173889417450003
2.1980086590290138	0.2179241147081711
2.2053353545591103	0.08679665566691505
2.2126864724076407	0.1611250451957254
2.220062093982333	0.06292205374362926
2.2274623009622747	0.025575978080993336
2.2348871752988155	0.013761003385612505
2.2423367992164787	0.006086801628338128
2.2498112552138667	0.004476018999359572
2.25731062606458	0.0041852359122531236
