#wavelength (micron)	surface_flux (erg / (cm2 micron s))
0.40133895199999997	0.013439051090865387
0.40267674850666674	0.013333340766546325
0.40401900433502225	0.0030201188755237646
0.4053657343494724	0.0033463268261703424
0.4067169534639707	0.02097586933001922
0.40807267664218394	0.0795774004778066
0.4094329188976579	0.21198268265464726
0.41079769529398347	0.4494409387351299
0.41216702094496344	0.824287707419029
0.41354091101477997	1.3734715561261535
0.4149193807181627	2.12214852145178
0.41630244532055655	3.0515879585318695
0.41769012013829176	3.863313635808902
0.41908242053875283	3.3061346035969827
0.4204793619405487	1.9379091491849536
0.42188095981368384	3.987806797554133
0.42328722967972954	10.066971060453733
0.4246981871119953	16.311101451854242
0.42611384773570193	21.93228193067971
0.4275342272281543	27.98341764693246
0.4289593413189149	34.800495228287964
0.43038920578997797	42.57369345084692
0.4318238364759446	51.4636340537504
0.43326324926419774	61.60330837196687
0.4347074600950785	73.12915595800867
0.4361564849620621	86.18511807467505
0.43761033991193565	100.90318727270248
0.4390690410449755	117.39253659112435
0.44053260451512544	135.94801602572065
0.4420010465301759	156.50678262695416
0.44347438335194317	179.76723078520155
0.4449526312964497	206.2246997327358
0.44643580673410455	235.42087985555116
0.44792392608988496	267.7680153638945
0.4494170058435179	303.76134085252454
0.450915062529663	343.24289552208626
0.4524181127380953	383.83959327279223
0.45392617311388894	407.1959219402841
0.45543926035760196	393.06067517886726
0.45695739122546064	344.9598183697755
0.4584805825295456	232.66921586637446
0.46000885113797746	195.11450710382985
0.46154221397510403	180.89298043872475
0.4630806880216877	162.01869261826695
0.4646242903150934	141.74066783321064
0.4661730379494771	123.32282018214705
0.4677269480759754	106.48533406494893
0.4692860379028953	89.53026767047523
0.47085032469590504	73.44208604863418
0.4724198257782247	59.405572094789285
0.47399455853081884	47.9997602027159
0.4755745403925883	39.30233751310564
0.4771597888605636	32.94571213846087
0.47875032149009894	28.40047765406869
0.4803461558950659	24.40052878726163
0.48194730974804956	20.581698455008144
0.48355380078054305	17.162509671229106
0.4851656467831449	14.353290681076539
0.48678286560575545	12.305350416480087
0.4884054751577746	10.779584113268191
0.4900334934083006	9.573937261846767
0.4916669383863283	8.544436885631042
0.4933058281809494	7.5895676547899535
0.4949501809415526	6.703161324103062
0.4966000148780246	5.850748937839175
0.4982553482609513	4.964802825611738
0.4999161994218212	4.128707595886108
0.5015825867532273	3.399111068078869
0.5032545287090715	2.84110696504824
0.5049320438047684	2.60761610641614
0.506615150617451	2.6005834577263185
0.5083038677861758	2.601595444555421
0.5099982140121297	2.630114688957658
0.5116982080588369	2.6659572130228724
0.5134038687523664	2.702151378035205
0.515115214981541	2.758303692115569
0.5168322656981462	2.8199296318258478
0.5185550399171401	2.8962748100368447
0.5202835567168639	2.9645769399854442
0.5220178352392535	3.02300312976092
0.5237578946900511	3.0707359463025012
0.525503754339018	3.125965019550243
0.527255433520148	3.182065098172906
0.5290129516318819	3.2379400122255473
0.5307763281373216	3.298862627258825
0.532545582564446	3.369842014637336
0.5343207345063276	3.4448724769178836
0.5361018036213486	3.5163706855349632
0.5378888096334199	3.5867426439638006
0.5396817723321979	3.641224161562217
0.5414807115733054	3.7033699574385173
0.5432856472785497	3.8183171712837
0.545096599436145	3.9143792915161084
0.5469135881009322	3.994714747120616
0.5487366333946019	4.128548835156084
0.5505657555059172	4.257585054078194
0.5524009746909371	4.385805960060606
0.5542423112732402	4.511055427857053
0.556089785644151	4.631510017883722
0.557943418262965	4.748217811942116
0.5598032296571749	4.855145224567577
0.5616692404226988	4.948512902484056
0.5635414712241079	5.033494741615899
0.5654199427948549	5.090810602257953
0.5673046759375044	5.041122583415337
0.569195691523963	4.9876748113202645
0.5710930104957095	5.045729151164991
0.5729966538640286	5.0170438862841245
0.5749066427102419	4.909436944859047
0.576822998185943	4.747001167822894
0.5787457415132294	4.561627355045407
0.5806748939849402	4.286643537224376
0.58261047696489	3.9227243903014015
0.5845525118881064	3.393905623658394
0.5865010202610669	2.3164308730355994
0.588456023661937	0.8724226347336
0.5904175437408102	0.8267607051233627
0.5923856022199464	2.6982203262307336
0.5943602208940129	4.880811181532738
0.5963414216303263	6.901992590798966
0.598329226369094	9.04642643086004
0.6003236571236578	11.615518154062018
0.6023247359807368	14.722221657325939
0.6043324851006725	18.49341510287033
0.6063469267176749	22.905694887598038
0.6083680831400672	27.671233699868
0.610395976750534	33.07314225164302
0.6124306300063692	39.166916580017634
0.6144720654397238	46.131213991896836
0.6165203056578563	53.947364322394385
0.6185753733433824	62.9033752354005
0.6206372912545272	73.0548064072211
0.6227060822253756	84.38183762783636
0.6247817691661269	96.31614187911737
0.6268643750633474	108.5607391984411
0.6289539229802253	125.46874102055915
0.6310504360568261	145.50471084338884
0.6331539375103489	165.48980086890873
0.6352644506353834	192.11099644471312
0.6373819988041681	218.1741488184622
0.6395066054668487	246.14083944694215
0.6416382941517382	280.39289370358193
0.6437770884655775	310.60601244023184
0.6459230120937961	325.24303887560814
0.6480760888007754	364.22362807844394
0.6502363424301114	435.4960480921094
0.6524037969048785	498.11761659843575
0.6545784762278948	571.1124856272395
0.6567604044819878	638.2564132787422
0.6589496058302612	733.0049513462857
0.6611461045163621	847.7258347824418
0.66334992486475	986.0135100561705
0.6655610912809659	1130.7436918377466
0.6677796282519025	1289.103817145607
0.6700055603460756	1386.8625428011396
0.6722389122138959	1560.9044804741475
0.6744797085879423	1835.0363183729107
0.6767279742832354	2018.9958191962467
0.6789837341975129	2147.546409523464
0.6812470133115047	2211.91031365028
0.6835178366892097	2196.7395764707544
0.6857962294781739	2086.2971559205066
0.6880822169097679	1889.3319654730565
0.6903758242994671	1580.1938187371338
0.6926770770471321	1204.2836356781345
0.6949860006372892	1123.7022986198813
0.6973026206394136	1204.7745683021353
0.6996269627082117	1162.439205318062
0.7019590525839058	1077.8764987306479
0.7042989160925188	1101.817191796752
0.7066465791461606	1165.3787369473855
0.7090020677433145	1214.6490545983504
0.7113654079691256	1227.5743368893463
0.7137366259956894	1196.8841647745721
0.7161157480823418	900.5231801455587
0.7185028005759496	680.6410817953791
0.7208978099112028	805.1444903038222
0.7233008026109069	876.3460685573118
0.7257118052862767	794.2367039428783
0.728130844637231	846.6512436980308
0.7305579474526884	842.177892486962
0.7329931406108642	881.6419759253948
0.7354364510795671	921.1901939613068
0.7378879059164991	1045.417511208257
0.7403475322695541	1194.9022252689226
0.7428153573771193	1338.0106545412655
0.7452914085683765	1423.679555956493
0.7477757132636044	1550.6277287629819
0.7502682989744831	1633.3314059628203
0.7527691933043982	1686.0746675854036
0.7552784239487462	1749.0678608678018
0.7577960186952422	1783.4233249571107
0.7603220054242263	1775.8841853557044
0.7628564121089738	1553.6429862474217
0.7653992668160038	952.7079131785009
0.7679505977053904	691.3490956564576
0.7705104330310751	941.5586392793768
0.7730788011411788	1516.3898947879948
0.7756557304783162	2065.540780667026
0.7782412495799106	2387.545037350101
0.7808353870785104	2566.0236644567294
0.7834381717021055	2955.3325048863935
0.7860496322744459	3088.299793540819
0.7886697977153608	3379.323426085866
0.7912986970410787	4025.2571580499534
0.793936359364549	4246.421177207294
0.7965828138957642	4506.066612412648
0.7992380899420836	5237.516006646494
0.8019022169085571	5895.390316532987
0.8045752242982523	6506.52523683163
0.80725714171258	6669.593870748842
0.809947998851622	5637.539873642354
0.8126478255144608	4405.33719344294
0.8153566515995091	3803.200839968074
0.8180745071048409	5331.253656038533
0.8208014221285237	7593.420326227748
0.8235374268689521	7772.898763120049
0.8262825516251822	9684.339990762473
0.8290368267972661	10163.08177221183
0.8318002828865904	10244.734056596148
0.8345729504962124	10584.967472366347
0.8373548603311998	11764.337200862352
0.8401460431989706	15637.424219523378
0.8429465300096338	17863.139720476636
0.8457563517763327	20939.2547495789
0.8485755396155872	24353.804941712857
0.8514041247476393	26720.50669734763
0.8542421384967981	30369.501834938616
0.8570896122917875	35113.52938442724
0.8599465776660935	39321.63059788474
0.8628130662583139	43016.17847239533
0.8656891098125085	46354.28959944097
0.8685747401785502	48863.89141300063
0.8714699893124788	51318.16424344265
0.8743748892768537	54524.4212916435
0.8772894722411099	57562.41056503943
0.8802137704819137	58822.67280645151
0.8831478163835201	57867.9655736873
0.8860916424381319	47836.191144825905
0.8890452812462591	27262.854889214323
0.89200876551708	13312.030285355548
0.8949821280688037	13844.236319336038
0.8979654018290332	13372.48652029631
0.90095861983513	16515.826790621828
0.9039618152345804	33630.2450504835
0.9069750212853626	34152.448493535056
0.9099982713563137	32718.119607676705
0.9130315989275016	43817.17065826026
0.9160750375905932	51536.04122783891
0.9191286210492287	65397.48822041843
0.9221923831193928	85960.13234339308
0.9252663577297908	63395.02424786078
0.9283505789222235	18910.759208785315
0.9314450808519644	1281.9198126641297
0.9345498977881376	1468.735771671469
0.9376650641140981	7619.257955216489
0.940790614327812	17534.67688575669
0.9439265830422381	13225.978031290202
0.9470730049857122	8680.143548053009
0.9502299150023314	6817.212408552799
0.9533973480523392	8121.963712506365
0.9565753392125138	8091.83673728768
0.9597639236765556	8552.135103227934
0.9629631367554774	8580.115974358205
0.9661730138779958	25355.580078752493
0.9693935905909224	50214.80577302817
0.972624902559559	62445.62437535876
0.9758669855680909	56258.19737219059
0.9791198755199847	68268.46603641286
0.9823836084383848	78200.48516162598
0.9856582204665127	95790.51748792369
0.9889437478680678	128623.26670653002
0.9922402270276282	146020.64985252786
0.9955476944510537	160710.48858390131
0.9988661867658906	150598.3563632432
1.002195740721777	125597.98260220935
1.0055363931908496	143540.87278908337
1.0088881811681525	145811.2739313458
1.0122511417720463	139039.08758211022
1.01562531224462	101872.1961581927
1.019010729952102	70783.84624459814
1.0224074323852759	69451.94793880233
1.0258154571598936	93748.53489422728
1.0292348420170931	110500.59753141839
1.0326656248238169	89776.08747161539
1.0361078435732296	73611.14444618118
1.0395615363851405	99270.33205230649
1.0430267415064245	136903.12109650348
1.0465034973114462	158255.50375443895
1.0499918423024843	164143.14064083697
1.0534918151101593	189304.06805751313
1.05700345449386	216231.6064642061
1.0605267993421728	222757.85270508484
1.0640618886733135	219005.79811046843
1.067608761635558	206967.92173420562
1.0711674575076766	195304.46512851285
1.0747380156993689	181226.30693477395
1.0783204757517002	164770.55233373208
1.0819148773375393	150584.07354898308
1.085521260261998	135370.81983239943
1.0891396644628712	119003.81162616485
1.092770130011081	93624.22339694898
1.0964126971111179	62447.60100241548
1.1000674061014886	42280.37583818351
1.10373429745516	24741.391660240406
1.1074134117800107	9451.473204413083
1.1111047898192774	3043.2864460483693
1.1148084724520084	1677.0820730542987
1.1185245006935154	1338.5919658778055
1.1222529156958272	1446.901016665144
1.1259937587481466	1503.656640818584
1.1297470712773072	1975.0201950821136
1.1335128948482316	1336.700826879934
1.1372912711643925	2962.8367430798376
1.1410822420682738	5709.450190546547
1.1448858495418348	3240.228172119967
1.1487021357069744	1172.1550669226674
1.1525311428259977	821.6938953901509
1.1563729133020846	262.6072877092053
1.1602274896797582	216.7903364113272
1.1640949146453576	908.3836375710216
1.1679752310275089	2348.5345912576195
1.1718684817976006	1399.7309880633327
1.1757747100702594	1229.998521905952
1.1796939591038271	3577.5377039614277
1.1836262723008397	4225.054197183856
1.1875716932085094	4850.161618929944
1.1915302655192046	6204.457611322507
1.1955020330709352	8560.140525781258
1.1994870398478386	13108.701200571375
1.2034853299806647	16755.696101846122
1.207496947747267	16788.322493821346
1.2115219375730912	17742.54877075773
1.2155603440316685	22598.876778225556
1.2196122118451074	28060.780769250818
1.2236775858845912	35203.41211546246
1.2277565111708733	53426.82162201134
1.2318490328747762	67641.5102315016
1.2359551963176922	86848.51832541259
1.2400750469720847	118953.85461760317
1.2442086304619917	156094.23048675628
1.248355992563532	186339.45749330166
1.2525171792054102	197651.19846372982
1.2566922364694284	227591.62138611393
1.2608812105909932	291923.70384231134
1.2650841479596302	356020.0407632788
1.2693010951194956	394717.27058982075
1.273532098769894	347238.8108045461
1.2777772057657937	264861.57011007867
1.2820364631183463	200127.13279333635
1.2863099179954076	137734.4814873592
1.2905976177220593	101067.57148261505
1.2948996097811327	91593.5272587504
1.2992159418137368	82623.47790893295
1.3035466616197826	68595.25154560075
1.3078918171585154	56420.92270384683
1.3122514565490437	36120.69765739378
1.3166256280708741	31142.126550018595
1.3210143801644436	34509.527711486975
1.3254177614316587	31467.396003374193
1.329835820636431	16492.862956124507
1.3342686067052192	5684.097041365634
1.33871616872757	2048.963458879423
1.343178555956662	272.90975728356005
1.347655817809851	43.708191221243766
1.352148003869217	26.93001446672966
1.3566551638821147	5.098953741967962
1.3611773477617217	1.0708952986776217
1.3657146055875944	1.2543791122289427
1.3702669876062197	1.6524459758464556
1.3748345442315741	10.580404269513112
1.3794173260456792	15.496184468953006
1.384015383799165	3.614476387840174
1.388628768411829	10.379656103618865
1.3932575309732018	19.006168936085775
1.3979017227431125	23.735531944504842
1.4025613951522564	40.95742897372177
1.407236599802764	39.190252820360286
1.4119273884687735	61.58468209864018
1.4166338130970026	47.80292977564319
1.4213559258073263	52.10085375523733
1.4260937788933508	90.77002760890323
1.4308474248229952	162.81496286192933
1.4356169162390722	207.92268956465048
1.4404023059598692	509.9449179465823
1.4452036469797356	858.7683306830079
1.450020992469668	1447.3918969031688
1.4548543957779003	2386.9155854635524
1.4597039104304934	3316.9990817786643
1.4645695901319284	2166.9878053471216
1.469451488765702	822.5095074678802
1.4743496603949209	261.4218379049846
1.479264159262904	270.86854137057867
1.4841950397937806	220.20270904667422
1.4891423565930935	207.27467834267208
1.4941061644484037	316.99074220137965
1.4990865183298985	468.6371262819243
1.5040834733909982	588.3903141679749
1.5090970849689684	621.6351377733354
1.5141274085855316	178.77064229078826
1.5191744999474837	473.11780137104114
1.5242384149473087	1211.772251389393
1.5293192096638	2421.8573771792217
1.5344169403626793	2818.268878475926
1.5395316634972218	3293.8205952155113
1.544663435708879	5248.337110588365
1.5498123138279087	9270.057714604342
1.554978354874002	16343.980829523676
1.5601616160569156	25884.10259497822
1.5653621547771055	51088.57822987697
1.5705800286263625	90599.86482768632
1.5758152953884506	120119.79559052597
1.5810680130397454	153675.35917376517
1.5863382397498782	180336.85859509313
1.5916260338823778	209384.15425123886
1.5969314539953192	204671.91428189998
1.6022545588419705	164226.79988988666
1.6075954073714436	111096.4471339259
1.6129540587293487	62823.46184277526
1.6183305722584467	28795.832081014334
1.6237250074993084	12261.461231280076
1.6291374241909726	6384.88031588108
1.6345678822716092	4381.215935858821
1.6400164418791816	3222.335117426458
1.6454831633521123	3642.9884092890948
1.6509681072299527	3604.465979547604
1.6564713342540527	6739.901065187747
1.6619929053682332	11222.670317015367
1.6675328817194608	4868.716234912164
1.6730913246585257	2137.7783065743793
1.6786682957407209	5457.725726985375
1.6842638567265233	6695.56530448313
1.6898780695822784	3604.1999825987787
1.6955109964808863	1430.6316704200535
1.7011626998024894	1062.8013662987803
1.7068332421351646	2470.695964466153
1.7125226862756153	3795.4300677475007
1.7182310952298672	5449.6682343517
1.7239585322139668	4808.1390876828
1.7297050606546804	2288.9901411923356
1.7354707441901962	2249.2689746937335
1.7412556466708302	3390.7129649394615
1.747059832159733	5736.8667538205345
1.752883364933599	7349.027932968091
1.7587263094833776	5538.739213294762
1.7645887305149892	4143.379254148283
1.7704706929500391	2924.8755038857657
1.7763722619265396	2718.6978307517343
1.7822935027996283	2449.83277487084
1.7882344811422937	1415.7151169577098
1.7941952627461015	750.1470580279765
1.8001759136219222	726.8884598507274
1.8061765000006618	340.1896747215496
1.8121970883339975	276.6567141695032
1.818237745295111	389.83327346171404
1.8242985377794283	637.9367820978151
1.8303795329053596	259.3498267198875
1.8364807980150446	81.60506738098711
1.8426024006750947	221.81553737593927
1.8487444086773455	342.374586772165
1.8549068900396033	259.53312593742703
1.861089913006402	107.99147015831514
1.8672935460497566	32.02049632983786
1.873517857869923	30.602004641007852
1.879762917396156	299.53708774048374
1.8860287937874767	651.1975126059928
1.8923155564334353	769.5873416343234
1.8986232749548801	638.1414863653131
1.9049520192047298	226.78035752233183
1.9113018592687456	167.13096820405508
1.9176728654663082	155.17299364703294
1.9240651083511964	188.1042148364045
1.9304786587123668	69.72137860461596
1.9369135875747419	13.082906953741189
1.9433699661999908	13.509015724947592
1.9498478660873244	34.35211271216553
1.9563473589742824	100.27910709989277
1.9628685168375302	279.9304904384754
1.9694114118936552	454.60031407038684
1.9759761165999676	532.4129841802152
1.9825627036553009	625.730362623563
1.9891712460008188	850.3812582627924
1.9958018168208218	1116.093717703248
2.002454489543558	1115.5156990940925
2.0091293378420367	933.8358643995144
2.0158264356348434	862.8534493369751
2.02254585708696	843.7841374256994
2.029287676610583	1508.712785268477
2.036051968865952	1717.7210586320246
2.042838808762172	2012.2118517403042
2.049648271458046	2511.802728189707
2.0564804323629065	2878.1690195969786
2.0633353671374497	3134.1716360527444
2.0702131516945745	3384.238160445755
2.0771138622002234	3228.1940630764498
2.084037575074224	3160.0561914125033
2.0909843669911385	3081.7297934606945
2.097954314881109	2915.4921112088687
2.1049474959307126	2895.432725563559
2.1119639875838154	2953.18798734318
2.1190038675424283	2888.651324998192
2.12606721376757	2840.028995016853
2.1331541044801288	2682.4132285820015
2.140264618161729	2576.5057922635688
2.147398833555602	2545.7204643553887
2.154556829667454	2205.9895377392318
2.1617386857663456	1833.1546626747297
2.1689444813855667	1600.98183366542
2.176174296323519	1414.4835245037766
2.1834282106445975	1232.841110629643
2.19070630468008	701.0391086413088
2.1980086590290138	185.9316267491797
2.2053353545591103	115.53549974520774
2.2126864724076407	238.90869570057046
2.220062093982333	142.46918428838785
2.2274623009622747	116.29322257260968
2.2348871752988155	95.5851067005362
2.2423367992164787	53.13000863466874
2.2498112552138667	31.17009041321278
2.25731062606458	30.474066752705234
2.2648349948181288	9.868746144116107
2.272384444800856	12.88291073429576
2.2799590596168593	29.28708213729074
2.2875589231489153	21.90961308978902
2.295184119559412	17.1322605116174
2.302834733291277	47.1148794262112
2.3105108490689146	111.90058321335762
2.3182125518991445	62.78564674451642
2.325939927072142	22.58149301144334
2.3336930601623824	19.37902757640984
2.341472037029591	20.372320266120997
2.3492769438196897	16.70952999272066
2.3571078669657557	62.57324628082665
2.364964893188975	111.72182844359115
