#wavelength (micron)	surface_flux (erg / (cm2 micron s))
0.40133895199999997	0.371925728210263
0.40267674850666674	0.3289598009211444
0.40401900433502225	0.04891215812736237
0.4053657343494724	0.052300233188547304
0.4067169534639707	0.5013700745408745
0.40807267664218394	2.4340613888893277
0.4094329188976579	8.019418178348852
0.41079769529398347	20.662219028796223
0.41216702094496344	44.62148354733074
0.41354091101477997	84.24126776186347
0.4149193807181627	142.5484435397357
0.41630244532055655	217.16785441587027
0.41769012013829176	277.8519473920382
0.41908242053875283	215.16045280851716
0.4204793619405487	82.02518227618303
0.42188095981368384	220.53431457154863
0.42328722967972954	739.4636078132514
0.4246981871119953	1275.1610957517742
0.42611384773570193	1724.610291538397
0.4275342272281543	2187.8059258394314
0.4289593413189149	2698.3328684642192
0.43038920578997797	3262.6938808912937
0.4318238364759446	3876.825939784048
0.43326324926419774	4576.088121672734
0.4347074600950785	5301.709333957216
0.4361564849620621	6068.463524613077
0.43761033991193565	6943.45394509918
0.4390690410449755	7937.206684872508
0.44053260451512544	8950.761638597389
0.4420010465301759	10145.080553065101
0.44347438335194317	11526.36930243748
0.4449526312964497	12992.624404596994
0.44643580673410455	14304.006252170851
0.44792392608988496	15631.086271405426
0.4494170058435179	17190.2201254275
0.450915062529663	18763.06818860592
0.4524181127380953	20268.211273690104
0.45392617311388894	20562.13307789065
0.45543926035760196	16666.12820343957
0.45695739122546064	13076.189822018987
0.4584805825295456	6516.66739440457
0.46000885113797746	4167.54609389743
0.46154221397510403	3540.2598006313833
0.4630806880216877	2839.984561117263
0.4646242903150934	2201.599278332759
0.4661730379494771	1710.5204751015306
0.4677269480759754	1318.7561574848157
0.4692860379028953	963.2577599958249
0.47085032469590504	661.3113757690312
0.4724198257782247	434.48397209048284
0.47399455853081884	282.68645453668853
0.4755745403925883	189.25337827547804
0.4771597888605636	133.98930403295364
0.47875032149009894	101.29026205040928
0.4803461558950659	78.44565932511091
0.48194730974804956	60.843545004422836
0.48355380078054305	47.60892997631944
0.4851656467831449	38.032733406426665
0.48678286560575545	31.351583864555003
0.4884054751577746	26.542602066945534
0.4900334934083006	22.902803533603976
0.4916669383863283	19.877467157889857
0.4933058281809494	17.174595012132162
0.4949501809415526	14.76589490716885
0.4966000148780246	12.551403626173618
0.4982553482609513	10.400813090758966
0.4999161994218212	8.437809058029536
0.5015825867532273	6.839889402868732
0.5032545287090715	5.726683187793435
0.5049320438047684	5.19149186893679
0.506615150617451	5.101258379931409
0.5083038677861758	5.100569821339546
0.5099982140121297	5.133736360873725
0.5116982080588369	5.169897713856566
0.5134038687523664	5.20503742886399
0.515115214981541	5.267616995562915
0.5168322656981462	5.332212676099108
0.5185550399171401	5.418727828247637
0.5202835567168639	5.494327247970891
0.5220178352392535	5.560615368426427
0.5237578946900511	5.622074365544989
0.525503754339018	5.691548528176962
0.527255433520148	5.766578077282011
0.5290129516318819	5.848458971345369
0.5307763281373216	5.944016939560503
0.532545582564446	6.05493741580919
0.5343207345063276	6.172823462814417
0.5361018036213486	6.293387397448177
0.5378888096334199	6.423116591189388
0.5396817723321979	6.5462674401120475
0.5414807115733054	6.6729999702941685
0.5432856472785497	6.838919759058032
0.545096599436145	6.9789128477702285
0.5469135881009322	7.101820625862576
0.5487366333946019	7.29183134884618
0.5505657555059172	7.469081708454603
0.5524009746909371	7.637576178030254
0.5542423112732402	7.793456168738877
0.556089785644151	7.939560987811121
0.557943418262965	8.076227126763834
0.5598032296571749	8.194089066517494
0.5616692404226988	8.286527055621889
0.5635414712241079	8.360719889764637
0.5654199427948549	8.400209906270769
0.5673046759375044	8.323451255068399
0.569195691523963	8.24166379401549
0.5710930104957095	8.238711210412145
0.5729966538640286	8.150319330101674
0.5749066427102419	7.953584557101999
0.576822998185943	7.656621514514116
0.5787457415132294	7.303532587466589
0.5806748939849402	6.793562563210569
0.58261047696489	6.125134024546457
0.5845525118881064	5.199478481926057
0.5865010202610669	3.507756741320531
0.588456023661937	1.333855616566406
0.5904175437408102	1.265411731550815
0.5923856022199464	4.106765121319112
0.5943602208940129	7.6174964595482715
0.5963414216303263	11.030883843152376
0.598329226369094	14.701036001636448
0.6003236571236578	18.920204452058574
0.6023247359807368	23.824753003634186
0.6043324851006725	29.584568961750232
0.6063469267176749	36.251557829805805
0.6083680831400672	43.81118052785372
0.610395976750534	52.530918142498365
0.6124306300063692	62.39618991129869
0.6144720654397238	73.72714323231764
0.6165203056578563	86.44179638175873
0.6185753733433824	100.87889023485576
0.6206372912545272	117.14579215905593
0.6227060822253756	135.39395608508238
0.6247817691661269	155.55123823071182
0.6268643750633474	177.17752225003835
0.6289539229802253	203.71545096941142
0.6310504360568261	234.9630203054006
0.6331539375103489	268.77062960567116
0.6352644506353834	311.0072677355152
0.6373819988041681	354.9236098456168
0.6395066054668487	402.7106721356123
0.6416382941517382	461.48175833757944
0.6437770884655775	520.5540745472127
0.6459230120937961	566.3698644452039
0.6480760888007754	643.9368431651477
0.6502363424301114	759.5229961191619
0.6524037969048785	872.1604497510701
0.6545784762278948	995.6506603698613
0.6567604044819878	1127.458337985805
0.6589496058302612	1294.5102923869513
0.6611461045163621	1479.8029795035336
0.66334992486475	1701.3734838757755
0.6655610912809659	1939.4500602792111
0.6677796282519025	2205.2905136712197
0.6700055603460756	2377.52253870227
0.6722389122138959	2673.3869107413543
0.6744797085879423	3131.4776149148206
0.6767279742832354	3451.734525935893
0.6789837341975129	3714.7728550056972
0.6812470133115047	3896.302962746375
0.6835178366892097	3952.8833948974334
0.6857962294781739	3840.9344316863017
0.6880822169097679	3579.101496706694
0.6903758242994671	3184.036264444907
0.6926770770471321	2701.7131081801285
0.6949860006372892	2527.7172566152685
0.6973026206394136	2569.986594241485
0.6996269627082117	2518.264143625034
0.7019590525839058	2430.6188374219782
0.7042989160925188	2502.8910396315628
0.7066465791461606	2625.0172774353346
0.7090020677433145	2714.8062124772505
0.7113654079691256	2780.158815882507
0.7137366259956894	2791.785242455776
0.7161157480823418	2491.1259512813676
0.7185028005759496	2252.7978617934405
0.7208978099112028	2352.679596341465
0.7233008026109069	2443.085518272993
0.7257118052862767	2335.9802271713456
0.728130844637231	2390.661468998451
0.7305579474526884	2311.0088405661704
0.7329931406108642	2270.0177903345957
0.7354364510795671	2263.716818825863
0.7378879059164991	2430.7277602940685
0.7403475322695541	2634.6842282573457
0.7428153573771193	2775.791872808503
0.7452914085683765	2831.7842866395295
0.7477757132636044	2931.0876475305213
0.7502682989744831	2940.8192663949376
0.7527691933043982	2936.3072271612855
0.7552784239487462	2942.046635103078
0.7577960186952422	2919.893691509713
0.7603220054242263	2810.9638936239185
0.7628564121089738	2319.543849148713
0.7653992668160038	1241.8268312276336
0.7679505977053904	747.770884814459
0.7705104330310751	1132.664521645418
0.7730788011411788	2128.2872030243325
0.7756557304783162	3047.5396844940797
0.7782412495799106	3667.92569960744
0.7808353870785104	4138.86200043775
0.7834381717021055	5005.136382092099
0.7860496322744459	5524.795104241365
0.7886697977153608	6280.832726152306
0.7912986970410787	7391.505143770161
0.793936359364549	7683.199100579893
0.7965828138957642	8453.243378333396
0.7992380899420836	10177.953836211309
0.8019022169085571	11654.98309702832
0.8045752242982523	13076.538677313512
0.80725714171258	14151.584749004262
0.809947998851622	13850.602636909696
0.8126478255144608	13222.001339285933
0.8153566515995091	12718.298457631085
0.8180745071048409	15454.169414423499
0.8208014221285237	20742.258415523072
0.8235374268689521	22738.718549658515
0.8262825516251822	26965.232368799516
0.8290368267972661	28937.508120542934
0.8318002828865904	30698.673135162804
0.8345729504962124	32585.983870229462
0.8373548603311998	35629.19469124566
0.8401460431989706	44196.77396001001
0.8429465300096338	48927.54337833253
0.8457563517763327	55369.175848481726
0.8485755396155872	62911.57291058937
0.8514041247476393	66759.84816753838
0.8542421384967981	75464.57685159847
0.8570896122917875	87852.05239356261
0.8599465776660935	97901.2869447917
0.8628130662583139	107552.89574447989
0.8656891098125085	117478.8845048999
0.8685747401785502	127247.78331360218
0.8714699893124788	137483.22831031727
0.8743748892768537	149309.3348876602
0.8772894722411099	161689.38558971268
0.8802137704819137	172094.3891340472
0.8831478163835201	179347.3185755137
0.8860916424381319	173030.02121885528
0.8890452812462591	141864.39974552253
0.89200876551708	110020.86537857294
0.8949821280688037	118190.87432922203
0.8979654018290332	126238.32063040373
0.90095861983513	139998.87852345925
0.9039618152345804	206727.81813029814
0.9069750212853626	213447.23369868702
0.9099982713563137	219530.5681253529
0.9130315989275016	265106.6452068019
0.9160750375905932	297214.1945966978
0.9191286210492287	343725.14067430445
0.9221923831193928	417607.3877990495
0.9252663577297908	371240.5428771991
0.9283505789222235	174711.74747823973
0.9314450808519644	67265.65516351548
0.9345498977881376	78171.06783807323
0.9376650641140981	142635.2381961523
0.940790614327812	262918.12919504347
0.9439265830422381	283959.53303620504
0.9470730049857122	257329.96542924832
0.9502299150023314	186067.02325671542
0.9533973480523392	199034.32549979063
0.9565753392125138	193830.09899014988
0.9597639236765556	201218.02513767543
0.9629631367554774	176181.75090844647
0.9661730138779958	310731.0616084594
0.9693935905909224	484549.92522783316
0.972624902559559	582138.7421407724
0.9758669855680909	564622.1792945685
0.9791198755199847	630922.924917577
0.9823836084383848	683575.8671606238
0.9856582204665127	800527.3284287631
0.9889437478680678	994565.99366728
0.9922402270276282	1064516.2488720375
0.9955476944510537	1128499.7911980778
0.9988661867658906	1076471.2254811088
1.002195740721777	1033073.4655986639
1.0055363931908496	1316073.4720823604
1.0088881811681525	1465174.096202165
1.0122511417720463	1561943.6688840045
1.01562531224462	1455073.549373098
1.019010729952102	1373680.120629307
1.0224074323852759	1454663.1840142102
1.0258154571598936	1759749.7208128637
1.0292348420170931	1965105.567951474
1.0326656248238169	1909213.7352787966
1.0361078435732296	1819264.6258507522
1.0395615363851405	2082272.038991017
1.0430267415064245	2488158.1846650164
1.0465034973114462	2694308.5627180706
1.0499918423024843	2737183.863183635
1.0534918151101593	2980917.500232007
1.05700345449386	3275543.700593403
1.0605267993421728	3432843.2340703025
1.0640618886733135	3507345.7256570854
1.067608761635558	3496018.990874757
1.0711674575076766	3504679.3679805435
1.0747380156993689	3420321.27069504
1.0783204757517002	3275437.305604645
1.0819148773375393	3213460.8763000704
1.085521260261998	3056090.2692080075
1.0891396644628712	2764046.4987348034
1.092770130011081	2220571.402304229
1.0964126971111179	1581816.2037483898
1.1000674061014886	1224745.3224964463
1.10373429745516	858686.9450739704
1.1074134117800107	379410.33133732755
1.1111047898192774	163767.71900571024
1.1148084724520084	143521.76839241528
1.1185245006935154	152058.0764182311
1.1222529156958272	186503.5932863951
1.1259937587481466	197257.43689160683
1.1297470712773072	208847.4853673327
1.1335128948482316	106822.34247950975
1.1372912711643925	170113.3682377028
1.1410822420682738	292598.22756992065
1.1448858495418348	199037.99721394657
1.1487021357069744	102016.56030907891
1.1525311428259977	72712.02166525279
1.1563729133020846	30238.74817073991
1.1602274896797582	32283.072657658377
1.1640949146453576	82379.07388330383
1.1679752310275089	161851.83070293826
1.1718684817976006	111457.96063324748
1.1757747100702594	81764.09799633913
1.1796939591038271	193167.09398031383
1.1836262723008397	258438.84968630012
1.1875716932085094	362657.4111311323
1.1915302655192046	433007.5107159772
1.1955020330709352	557732.5048976943
1.1994870398478386	855153.0234492728
1.2034853299806647	1102996.297946153
1.207496947747267	1139410.8858990807
1.2115219375730912	1217762.7447405995
1.2155603440316685	1486168.7829738944
1.2196122118451074	1800488.9447062705
1.2236775858845912	2129063.3845210685
1.2277565111708733	2698895.121456358
1.2318490328747762	3109590.144161263
1.2359551963176922	3568348.580317301
1.2400750469720847	4254309.501567201
1.2442086304619917	4905976.578316045
1.248355992563532	5459397.361830269
1.2525171792054102	5772202.843830956
1.2566922364694284	6272651.375715916
1.2608812105909932	6881674.184662164
1.2650841479596302	7189560.844586479
1.2693010951194956	7303589.74201471
1.273532098769894	6791984.35591384
1.2777772057657937	5806511.132728118
1.2820364631183463	4908827.403777951
1.2863099179954076	3782777.600191826
1.2905976177220593	3126060.4302007137
1.2948996097811327	2889563.1895443792
1.2992159418137368	2683122.4827592857
1.3035466616197826	2310043.959154348
1.3078918171585154	1850235.1497916228
1.3122514565490437	1250073.7284008914
1.3166256280708741	1205050.9680212105
1.3210143801644436	1306851.228710755
1.3254177614316587	1051650.2178165733
1.329835820636431	543835.649339478
1.3342686067052192	183013.22433094756
1.33871616872757	54693.072325449466
1.343178555956662	13926.256785587682
1.347655817809851	4953.732934588714
1.352148003869217	4026.3443649662727
1.3566551638821147	1398.0320676432577
1.3611773477617217	498.53386872755584
1.3657146055875944	576.4967852111819
1.3702669876062197	921.6674973618425
1.3748345442315741	2855.7928850158
1.3794173260456792	3854.2686067563377
1.384015383799165	1346.1452495298033
1.388628768411829	2151.3268499170786
1.3932575309732018	4066.6463915651184
1.3979017227431125	3652.4400056681898
1.4025613951522564	5838.235639708376
1.407236599802764	6164.839060793343
1.4119273884687735	7902.673817003154
1.4166338130970026	5514.049818391685
1.4213559258073263	5457.057669438336
1.4260937788933508	7881.673984812524
1.4308474248229952	11636.64464102904
1.4356169162390722	16143.216423565511
1.4404023059598692	33385.737807323
1.4452036469797356	45186.410504627274
1.450020992469668	58066.42975361234
1.4548543957779003	72483.49564679914
1.4597039104304934	84054.51627691172
1.4645695901319284	80564.76149420986
1.469451488765702	44099.570321201594
1.4743496603949209	19120.8464112455
1.479264159262904	20768.96033687759
1.4841950397937806	21817.506396928704
1.4891423565930935	21792.990402315794
1.4941061644484037	33597.79721753017
1.4990865183298985	63066.38649301037
1.5040834733909982	67024.91835253855
1.5090970849689684	66781.95863950133
1.5141274085855316	33348.775859343965
1.5191744999474837	55870.94071664308
1.5242384149473087	117585.01251516418
1.5293192096638	199329.4703027878
1.5344169403626793	241842.53991254987
1.5395316634972218	280619.33253806364
1.544663435708879	348078.0673515117
1.5498123138279087	500111.9332423741
1.554978354874002	729885.3058361069
1.5601616160569156	835905.6903607394
1.5653621547771055	1224182.7308774686
1.5705800286263625	1783002.6984427539
1.5758152953884506	2097953.2139966395
1.5810680130397454	2406244.6248259884
1.5863382397498782	2566340.6168315522
1.5916260338823778	2718427.1306667663
1.5969314539953192	2476108.562624342
1.6022545588419705	1886470.4236931393
1.6075954073714436	1301522.8612509442
1.6129540587293487	813601.6273753659
1.6183305722584467	468483.3927559452
1.6237250074993084	268664.53152310854
1.6291374241909726	202700.88361832604
1.6345678822716092	154302.880699297
1.6400164418791816	121864.99823917904
1.6454831633521123	167437.48105602767
1.6509681072299527	205180.74263420267
1.6564713342540527	246744.78410287117
1.6619929053682332	287685.3923631429
1.6675328817194608	139286.52284384426
1.6730913246585257	64272.1607820486
1.6786682957407209	143565.55066956216
1.6842638567265233	184023.46416070507
1.6898780695822784	117463.64596448028
1.6955109964808863	58085.27034568251
1.7011626998024894	54046.477313479605
1.7068332421351646	96043.24169705919
1.7125226862756153	123133.26393959639
1.7182310952298672	159796.257465512
1.7239585322139668	155044.97300150146
1.7297050606546804	103582.82625713672
1.7354707441901962	96626.03260049096
1.7412556466708302	106703.80454712047
1.747059832159733	153893.51540581338
1.752883364933599	191860.6759774763
1.7587263094833776	150540.21601593576
1.7645887305149892	115237.30924795059
1.7704706929500391	79881.41572824323
1.7763722619265396	78055.09541072075
1.7822935027996283	73442.67882196332
1.7882344811422937	54985.36831222574
1.7941952627461015	32307.452002706574
1.8001759136219222	29972.933534174794
1.8061765000006618	17583.44624186052
1.8121970883339975	18788.886470802412
1.818237745295111	30770.188707938833
1.8242985377794283	41340.500691522444
1.8303795329053596	17881.576097604222
1.8364807980150446	8520.873788929934
1.8426024006750947	16914.01069976076
1.8487444086773455	27707.028929494034
1.8549068900396033	24578.389208837172
1.861089913006402	9085.898309840406
1.8672935460497566	4227.06108649995
1.873517857869923	5843.307882405486
1.879762917396156	24243.734774598932
1.8860287937874767	44140.17060026458
1.8923155564334353	58467.74496877953
1.8986232749548801	53496.35307501494
1.9049520192047298	23115.93552053454
1.9113018592687456	18451.826535833596
1.9176728654663082	13135.550888015803
1.9240651083511964	13211.085253801211
1.9304786587123668	6287.144412979394
1.9369135875747419	2065.394299086996
1.9433699661999908	3131.6699831151677
1.9498478660873244	5496.060093985336
1.9563473589742824	8984.363149292416
1.9628685168375302	18123.45556753391
1.9694114118936552	29308.4505891766
1.9759761165999676	36789.943181243965
1.9825627036553009	46126.78064073187
1.9891712460008188	57681.91126574983
1.9958018168208218	67156.80830692715
2.002454489543558	68016.86406667408
2.0091293378420367	65203.079619958036
2.0158264356348434	58930.64582642659
2.02254585708696	47780.67783276185
2.029287676610583	78321.0660797634
2.036051968865952	92978.6242787963
2.042838808762172	110248.67328999439
2.049648271458046	131072.74757348048
2.0564804323629065	151266.88342962816
2.0633353671374497	177234.1194183879
2.0702131516945745	209870.7397563203
2.0771138622002234	205664.2429878993
2.084037575074224	208244.92525795262
2.0909843669911385	211254.29050274723
2.097954314881109	208344.1682500051
2.1049474959307126	214801.74667235656
2.1119639875838154	220108.03513234775
2.1190038675424283	210581.15075116203
2.12606721376757	200813.16967680817
2.1331541044801288	185414.0799525651
2.140264618161729	169836.06362723766
2.147398833555602	158639.0107137771
2.154556829667454	130824.96595886082
2.1617386857663456	107343.97348377678
2.1689444813855667	91891.54663148533
2.176174296323519	75886.7836908258
2.1834282106445975	65673.39439097447
2.19070630468008	37015.00589180005
2.1980086590290138	10426.851503921775
2.2053353545591103	8829.835029370393
2.2126864724076407	19972.873635686366
2.220062093982333	14520.85959402848
2.2274623009622747	10333.292444304332
2.2348871752988155	8574.79831274353
2.2423367992164787	5367.321071091934
2.2498112552138667	3609.5220249177887
2.25731062606458	3532.9115931971164
2.2648349948181288	1688.71201948938
2.272384444800856	1985.2300457656806
2.2799590596168593	3433.229928140871
2.2875589231489153	3408.3467062502573
2.295184119559412	3055.0552275610785
2.302834733291277	7329.128518028284
2.3105108490689146	13763.52527014782
2.3182125518991445	6779.0321471623465
2.325939927072142	2827.9742500883176
2.3336930601623824	2709.274786551836
2.341472037029591	1445.6619648440521
2.3492769438196897	1985.41159726504
2.3571078669657557	6297.685748951212
2.364964893188975	9217.841680539712
