#wavelength (micron)	surface_flux (erg / (cm2 micron s))
0.40133895199999997	0.0005093840439456279
0.40267674850666674	0.0007176724835883736
0.40401900433502225	0.0005321613855823989
0.4053657343494724	0.0006218795203939236
0.4067169534639707	0.0012118327338769281
0.40807267664218394	0.0026759920472105804
0.4094329188976579	0.0052541687244803785
0.41079769529398347	0.008995080233152281
0.41216702094496344	0.0138793457347915
0.41354091101477997	0.02011563182219744
0.4149193807181627	0.027518105286951432
0.41630244532055655	0.03602309854576208
0.41769012013829176	0.04607888549604722
0.41908242053875283	0.0630675028964174
0.4204793619405487	0.08899414239936254
0.42188095981368384	0.10110756211563825
0.42328722967972954	0.11313352827110762
0.4246981871119953	0.13781011082236402
0.42611384773570193	0.1686815916068504
0.4275342272281543	0.20377184626070513
0.4289593413189149	0.2425338835405263
0.43038920578997797	0.28573866437975337
0.4318238364759446	0.3346828837972567
0.43326324926419774	0.38953350894006084
0.4347074600950785	0.45047178419685274
0.4361564849620621	0.5173710247359437
0.43761033991193565	0.5901763571689083
0.4390690410449755	0.6678733776437289
0.44053260451512544	0.7528425994188606
0.4420010465301759	0.8365947335995516
0.44347438335194317	0.940755281908977
0.4449526312964497	1.0735910362593326
0.44643580673410455	1.2126189637093052
0.44792392608988496	1.3734659729781924
0.4494170058435179	1.5567102703842601
0.450915062529663	1.760734859115793
0.4524181127380953	1.984758911649398
0.45392617311388894	2.247782228595682
0.45543926035760196	2.580538954980479
0.45695739122546064	2.867770712975279
0.4584805825295456	3.1849823309289342
0.46000885113797746	3.5538391808490055
0.46154221397510403	3.9254794736830037
0.4630806880216877	4.315263696301438
0.4646242903150934	4.706782967256479
0.4661730379494771	5.07007571787944
0.4677269480759754	5.418369660136502
0.4692860379028953	5.718304075908618
0.47085032469590504	5.979323875484723
0.4724198257782247	6.16613675039679
0.47399455853081884	6.241274844809888
0.4755745403925883	6.247486892270767
0.4771597888605636	6.206743949009281
0.47875032149009894	6.158035111372587
0.4803461558950659	6.030796343192945
0.48194730974804956	5.810035469207112
0.48355380078054305	5.51538754591902
0.4851656467831449	5.212795289692051
0.48678286560575545	5.029339247685937
0.4884054751577746	4.89637837926442
0.4900334934083006	4.77818647646093
0.4916669383863283	4.644045480663005
0.4933058281809494	4.475294424013148
0.4949501809415526	4.273493402176044
0.4966000148780246	3.9991933510795943
0.4982553482609513	3.5837110709309097
0.4999161994218212	3.124433277364093
0.5015825867532273	2.6247105524160177
0.5032545287090715	2.1522306876599573
0.5049320438047684	2.0121481434508666
0.506615150617451	2.0552749411977262
0.5083038677861758	2.047361943713803
0.5099982140121297	2.0862049971915475
0.5116982080588369	2.144434173225563
0.5134038687523664	2.2250223234716717
0.515115214981541	2.3304441231422164
0.5168322656981462	2.449360987172477
0.5185550399171401	2.5645048043661802
0.5202835567168639	2.6602762421474497
0.5220178352392535	2.721941478799433
0.5237578946900511	2.747047321058669
0.525503754339018	2.7978760310438195
0.527255433520148	2.8474392086248557
0.5290129516318819	2.8783739911775363
0.5307763281373216	2.9040903266959943
0.532545582564446	2.944266117386416
0.5343207345063276	2.9852860631507663
0.5361018036213486	2.9954748426129765
0.5378888096334199	2.978816685239001
0.5396817723321979	2.9153422974343575
0.5414807115733054	2.875876613553524
0.5432856472785497	2.9701762532315708
0.545096599436145	3.0474098442383255
0.5469135881009322	3.1000339239435974
0.5487366333946019	3.219226832963131
0.5505657555059172	3.339516564917945
0.5524009746909371	3.471152833014676
0.5542423112732402	3.5983718670306537
0.556089785644151	3.7099575603616386
0.557943418262965	3.8013012504540438
0.5598032296571749	3.8656284858152863
0.5616692404226988	3.909750859257916
0.5635414712241079	3.947808799395399
0.5654199427948549	3.934263686966314
0.5673046759375044	3.7236947382832852
0.569195691523963	3.5488075965722983
0.5710930104957095	3.6943252933202126
0.5729966538640286	3.6985951729944677
0.5749066427102419	3.6382755766150994
0.576822998185943	3.5710004768395702
0.5787457415132294	3.484151603580069
0.5806748939849402	3.326399737522458
0.58261047696489	3.0983783511334435
0.5845525118881064	2.750286673030075
0.5865010202610669	1.9351047094422995
0.588456023661937	0.7491398910710413
0.5904175437408102	0.6746237017038984
0.5923856022199464	2.0192560116225664
0.5943602208940129	3.2490633594683156
0.5963414216303263	4.310070126807583
0.598329226369094	5.63674617563136
0.6003236571236578	7.418275421181325
0.6023247359807368	9.806622018468651
0.6043324851006725	12.794080047181794
0.6063469267176749	16.428333277896737
0.6083680831400672	20.680389590854727
0.610395976750534	25.628238778701697
0.6124306300063692	31.331480113046307
0.6144720654397238	37.786530813158514
0.6165203056578563	44.97633525832215
0.6185753733433824	53.103656445054455
0.6206372912545272	62.13038442869968
0.6227060822253756	71.6395737932532
0.6247817691661269	79.80013479204145
0.6268643750633474	87.7053225342817
0.6289539229802253	104.09771268790512
0.6310504360568261	123.47863690021858
0.6331539375103489	140.7030921265771
0.6352644506353834	164.2903582130918
0.6373819988041681	187.20287019658298
0.6395066054668487	211.88344054396154
0.6416382941517382	239.59222806926888
0.6437770884655775	253.0515660724763
0.6459230120937961	240.40342216000505
0.6480760888007754	259.52386978413074
0.6502363424301114	324.5141874999462
0.6524037969048785	371.63494193448577
0.6545784762278948	429.743136153275
0.6567604044819878	474.84494297132585
0.6589496058302612	558.9055248552194
0.6611461045163621	677.370496405598
0.66334992486475	806.7578889604772
0.6655610912809659	946.4001183840683
0.6677796282519025	1089.418445544057
0.6700055603460756	1239.6772031928044
0.6722389122138959	1401.796435309414
0.6744797085879423	1579.3767518482152
0.6767279742832354	1748.3040436717445
0.6789837341975129	1852.9220853990862
0.6812470133115047	1872.6215493103728
0.6835178366892097	1807.3767026747798
0.6857962294781739	1666.4670170018526
0.6880822169097679	1435.2797206707069
0.6903758242994671	1038.8652667523306
0.6926770770471321	585.3405573347678
0.6949860006372892	514.2293412569351
0.6973026206394136	638.8274128931862
0.6996269627082117	595.4923370545142
0.7019590525839058	512.9727580362229
0.7042989160925188	515.8051036776183
0.7066465791461606	547.0573214413307
0.7090020677433145	567.2590028604974
0.7113654079691256	553.2386463659312
0.7137366259956894	457.59802606021066
0.7161157480823418	210.64004836764892
0.7185028005759496	63.00816196673135
0.7208978099112028	127.97114516406596
0.7233008026109069	157.05562350413504
0.7257118052862767	108.87865578668973
0.728130844637231	119.41933274872207
0.7305579474526884	120.29978856984509
0.7329931406108642	166.8572024166736
0.7354364510795671	230.24838261679176
0.7378879059164991	304.3565169560635
0.7403475322695541	402.48646042069913
0.7428153573771193	520.1166199441315
0.7452914085683765	637.9502185145263
0.7477757132636044	753.6715209259476
0.7502682989744831	854.3900420739016
0.7527691933043982	933.8799440952946
0.7552784239487462	988.8209419355578
0.7577960186952422	1019.3274644828585
0.7603220054242263	1025.949896831323
0.7628564121089738	923.4171669961485
0.7653992668160038	653.126978020839
0.7679505977053904	546.778346592512
0.7705104330310751	666.662903857452
0.7730788011411788	929.453584384441
0.7756557304783162	1182.2330803160346
0.7782412495799106	1369.8863109708748
0.7808353870785104	1489.3297061157148
0.7834381717021055	1536.8562152839922
0.7860496322744459	1497.5925265299306
0.7886697977153608	1545.7317920186147
0.7912986970410787	1839.7527074057039
0.793936359364549	2107.2906634445862
0.7965828138957642	2094.8062771077316
0.7992380899420836	2206.2700289392733
0.8019022169085571	2436.2558578772027
0.8045752242982523	2588.886782353645
0.80725714171258	2299.3099868377076
0.809947998851622	1380.1657117862785
0.8126478255144608	576.3280126810324
0.8153566515995091	295.99458111462906
0.8180745071048409	645.8528149521964
0.8208014221285237	1116.7295023518711
0.8235374268689521	1048.832475514585
0.8262825516251822	1565.2066660519336
0.8290368267972661	1501.7909595945641
0.8318002828865904	1335.080340206135
0.8345729504962124	1444.7750381612202
0.8373548603311998	1929.2679847137238
0.8401460431989706	2975.7890352770287
0.8429465300096338	4283.249287832026
0.8457563517763327	5852.616983128774
0.8485755396155872	7374.4393597551325
0.8514041247476393	8772.093194512592
0.8542421384967981	10370.451407107164
0.8570896122917875	12205.984644362843
0.8599465776660935	13875.243655141474
0.8628130662583139	15050.343823536952
0.8656891098125085	15435.937629268345
0.8685747401785502	14631.769887971519
0.8714699893124788	13571.450749547323
0.8743748892768537	12856.833345354702
0.8772894722411099	11721.479653830373
0.8802137704819137	9549.733075128956
0.8831478163835201	7012.265842359142
0.8860916424381319	3472.9466373750074
0.8890452812462591	737.0036472824285
0.89200876551708	60.63068591168618
0.8949821280688037	14.417279439016253
0.8979654018290332	11.837257141885216
0.90095861983513	39.54579468724086
0.9039618152345804	175.4937119608665
0.9069750212853626	209.46533724148142
0.9099982713563137	177.5003088641783
0.9130315989275016	254.4211836592576
0.9160750375905932	315.58130492355747
0.9191286210492287	550.3294945594514
0.9221923831193928	765.6757361428407
0.9252663577297908	373.53320570118973
0.9283505789222235	48.95974350010408
0.9314450808519644	0.5579820405791943
0.9345498977881376	0.018607120775234756
0.9376650641140981	1.6667981335810604
0.940790614327812	4.458514187933093
0.9439265830422381	1.6916799963952267
0.9470730049857122	0.23380015964596648
0.9502299150023314	0.48883030051690124
0.9533973480523392	0.688510641400817
0.9565753392125138	0.832331147277175
0.9597639236765556	1.662464339814498
0.9629631367554774	5.2184881171860615
0.9661730138779958	31.75818311898079
0.9693935905909224	120.13278764966725
0.972624902559559	190.34265008054177
0.9758669855680909	183.67916714437487
0.9791198755199847	261.4039391158696
0.9823836084383848	383.1668107166392
0.9856582204665127	602.1471623212814
0.9889437478680678	940.9947386245724
0.9922402270276282	1228.9631311113465
0.9955476944510537	1296.786988854958
0.9988661867658906	1201.2846439522505
1.002195740721777	548.3052847438167
1.0055363931908496	256.29769256305565
1.0088881811681525	176.08037535711492
1.0122511417720463	140.20532560532777
1.01562531224462	75.15364052241897
1.019010729952102	30.437999551603685
1.0224074323852759	15.192242883735748
1.0258154571598936	16.43520349697439
1.0292348420170931	22.65256828880996
1.0326656248238169	15.323625442170572
1.0361078435732296	11.332195576921787
1.0395615363851405	20.209519419605286
1.0430267415064245	29.541911669924072
1.0465034973114462	34.766230503357555
1.0499918423024843	38.24447004371197
1.0534918151101593	43.68027557423584
1.05700345449386	45.60281964467579
1.0605267993421728	41.45456544056728
1.0640618886733135	34.463356405546214
1.067608761635558	26.703143765313406
1.0711674575076766	19.97551141179166
1.0747380156993689	15.272700107235082
1.0783204757517002	12.08584196110071
1.0819148773375393	9.619624178839592
1.085521260261998	7.771222484658028
1.0891396644628712	6.358668603915033
1.092770130011081	4.960389031520235
1.0964126971111179	3.540899568852248
1.1000674061014886	2.3643470326493183
1.10373429745516	1.378825987308671
1.1074134117800107	0.6012152170228601
1.1111047898192774	0.18140745743877215
1.1148084724520084	0.0444461209155632
1.1185245006935154	0.0086418921850703
1.1222529156958272	0.003621472007087617
1.1259937587481466	0.003372901163002868
1.1297470712773072	0.011772222698097875
1.1335128948482316	0.01358950261956235
1.1372912711643925	0.02775293690299766
1.1410822420682738	0.05997557457712514
1.1448858495418348	0.03550813885037649
1.1487021357069744	0.012603119033868035
1.1525311428259977	0.011234974276929306
1.1563729133020846	0.005242157210427789
1.1602274896797582	0.002897811757246609
1.1640949146453576	0.01467681942776624
1.1679752310275089	0.057196526582242745
1.1718684817976006	0.03947572317177927
1.1757747100702594	0.053832018261021616
1.1796939591038271	0.13347958892267256
1.1836262723008397	0.14261763175342276
1.1875716932085094	0.18154045467744995
1.1915302655192046	0.29020406288249084
1.1955020330709352	0.3689632031709497
1.1994870398478386	0.40938861814781596
1.2034853299806647	0.4648583376140003
1.207496947747267	0.4985427177354597
1.2115219375730912	0.5747732526400767
1.2155603440316685	0.7705218704007517
1.2196122118451074	1.0801194054689456
1.2236775858845912	1.7048066243907456
1.2277565111708733	2.978975304576275
1.2318490328747762	4.012850519031093
1.2359551963176922	5.818221806811553
1.2400750469720847	9.853484106101721
1.2442086304619917	16.853236686129332
1.248355992563532	24.98596136025172
1.2525171792054102	30.30789273200558
1.2566922364694284	40.31922464594159
1.2608812105909932	63.64959720329664
1.2650841479596302	102.19389858631918
1.2693010951194956	138.53638767750266
1.273532098769894	139.7490502324714
1.2777772057657937	126.93804706174566
1.2820364631183463	104.67603378984624
1.2863099179954076	68.78614973461721
1.2905976177220593	43.58575779065473
1.2948996097811327	36.19352084263088
1.2992159418137368	33.02255254547467
1.3035466616197826	26.397119877462707
1.3078918171585154	23.36121241574954
1.3122514565490437	17.70791194093377
1.3166256280708741	11.448130575719198
1.3210143801644436	10.870316845646917
1.3254177614316587	13.078070250427883
1.329835820636431	7.062542290814407
1.3342686067052192	2.0269335609788253
1.33871616872757	0.882018695330259
1.343178555956662	0.10914865208022889
1.347655817809851	0.0059049480948981286
1.352148003869217	0.0006384771067657211
1.3566551638821147	3.538376395614108e-05
1.3611773477617217	4.092871778047103e-06
1.3657146055875944	3.8132453536720836e-06
1.3702669876062197	8.03578381567176e-06
1.3748345442315741	3.517423185410727e-05
1.3794173260456792	3.817244684819566e-05
1.384015383799165	1.2689387275782305e-05
1.388628768411829	7.323378380057674e-05
1.3932575309732018	0.0001095044486047206
1.3979017227431125	0.0001883676734684944
1.4025613951522564	0.000457219927302093
1.407236599802764	0.000491475378036684
1.4119273884687735	0.0012572269698950768
1.4166338130970026	0.0018992820205506215
1.4213559258073263	0.003805852024352545
1.4260937788933508	0.006928395443548365
1.4308474248229952	0.012902425756639633
1.4356169162390722	0.026706422103884055
1.4404023059598692	0.031945189200663346
1.4452036469797356	0.09862062636341241
1.450020992469668	0.5711824341833766
1.4548543957779003	1.7646149573628034
1.4597039104304934	2.3159604718677684
1.4645695901319284	0.9580705920580197
1.469451488765702	0.19156245042415904
1.4743496603949209	0.050296543252837736
1.479264159262904	0.034902695184552086
1.4841950397937806	0.019404995523974747
1.4891423565930935	0.010006078899497079
1.4941061644484037	0.0060647683050992695
1.4990865183298985	0.009564785055455962
1.5040834733909982	0.0341271562827476
1.5090970849689684	0.036646298284056515
1.5141274085855316	0.00627903728727276
1.5191744999474837	0.02629863094634768
1.5242384149473087	0.0966360604849527
1.5293192096638	0.28590167374215775
1.5344169403626793	0.34427295513820516
1.5395316634972218	0.6579866981714535
1.544663435708879	2.2913737184656244
1.5498123138279087	7.955573465081612
1.554978354874002	27.01190875082997
1.5601616160569156	73.02637149561995
1.5653621547771055	167.3842920323057
1.5705800286263625	308.3603930655929
1.5758152953884506	428.049640930845
1.5810680130397454	526.197425057384
1.5863382397498782	608.2872395289306
1.5916260338823778	685.5062278148953
1.5969314539953192	709.7159324683558
1.6022545588419705	613.8963802232823
1.6075954073714436	432.76169693204315
1.6129540587293487	239.36174036843423
1.6183305722584467	94.96571621479112
1.6237250074993084	24.342387795945157
1.6291374241909726	4.715614862159765
1.6345678822716092	1.1856868253661674
1.6400164418791816	0.4393458053549696
1.6454831633521123	0.3186386093791109
1.6509681072299527	0.2600407105328556
1.6564713342540527	1.790299348297417
1.6619929053682332	3.6887589126396167
1.6675328817194608	1.3556782775217402
1.6730913246585257	1.077019152427656
1.6786682957407209	2.0295230477011996
1.6842638567265233	2.0378824503663586
1.6898780695822784	0.9545094398161121
1.6955109964808863	0.4226162144888606
1.7011626998024894	0.2129691965172339
1.7068332421351646	0.5966200073095429
1.7125226862756153	1.198098507133506
1.7182310952298672	1.9717621582007192
1.7239585322139668	1.1976305053374439
1.7297050606546804	0.36673749139197015
1.7354707441901962	0.6469217185100318
1.7412556466708302	1.7227957270524
1.747059832159733	3.681684954692209
1.752883364933599	5.334729540379883
1.7587263094833776	4.86572525242021
1.7645887305149892	3.2203390246972323
1.7704706929500391	1.9580804010508084
1.7763722619265396	1.5793987497748776
1.7822935027996283	1.3886319116058896
1.7882344811422937	0.5659568628124465
1.7941952627461015	0.22811079900573497
1.8001759136219222	0.21610185519322847
1.8061765000006618	0.10424818658376647
1.8121970883339975	0.06909800246770194
1.818237745295111	0.03645118900563829
1.8242985377794283	0.045337911107042585
1.8303795329053596	0.019094023990886923
1.8364807980150446	0.005547996048401724
1.8426024006750947	0.009900504302022866
1.8487444086773455	0.013264887659245736
1.8549068900396033	0.010577467021341583
1.861089913006402	0.015214983170368514
1.8672935460497566	0.013734220051170839
1.873517857869923	0.005639104635322206
1.879762917396156	0.020541801349132305
1.8860287937874767	0.03945089719244725
1.8923155564334353	0.046718991388069564
1.8986232749548801	0.034276547432546295
1.9049520192047298	0.014148004175862141
1.9113018592687456	0.016333090343365143
1.9176728654663082	0.016405965479067974
1.9240651083511964	0.020987702837823325
1.9304786587123668	0.011348254160100964
1.9369135875747419	0.0038429615857430758
1.9433699661999908	0.001651741429864729
1.9498478660873244	0.0009573295020515885
1.9563473589742824	0.004650028361069975
1.9628685168375302	0.011011531952105948
1.9694114118936552	0.013318452682880183
1.9759761165999676	0.012136085686900661
1.9825627036553009	0.01328057195748704
1.9891712460008188	0.021381513071301598
1.9958018168208218	0.025628500169718973
2.002454489543558	0.02566596871739189
2.0091293378420367	0.023132283780446208
2.0158264356348434	0.025540686711958905
2.02254585708696	0.03372829000151066
2.029287676610583	0.05890018752008108
2.036051968865952	0.0673086443918669
2.042838808762172	0.06426932971635274
2.049648271458046	0.06303631765851564
2.0564804323629065	0.05838755786796012
2.0633353671374497	0.05042245286223855
2.0702131516945745	0.04154247493057781
2.0771138622002234	0.03235866361297847
2.084037575074224	0.02495707137885407
2.0909843669911385	0.0194986908479593
2.097954314881109	0.01575147858375345
2.1049474959307126	0.013775055324964963
2.1119639875838154	0.013577539098621305
2.1190038675424283	0.015155810765086451
2.12606721376757	0.01868848809607419
2.1331541044801288	0.023942910737566315
2.140264618161729	0.031231160130993328
2.147398833555602	0.038008771944708565
2.154556829667454	0.03977177933618342
2.1617386857663456	0.03859549814719171
2.1689444813855667	0.03598170096651036
2.176174296323519	0.035905122067931526
2.1834282106445975	0.03473762345641127
2.19070630468008	0.0247973325403404
2.1980086590290138	0.008454463914081882
2.2053353545591103	0.0019491496477193739
2.2126864724076407	0.002406943326326496
2.220062093982333	0.0010801388844659547
2.2274623009622747	0.0008494685089742088
2.2348871752988155	0.0008106995851755112
2.2423367992164787	0.0007488779827041172
2.2498112552138667	0.0004203006714111104
2.25731062606458	0.0002323485740463291
2.2648349948181288	4.6441437083312426e-05
2.272384444800856	5.8120055744487035e-05
2.2799590596168593	0.00015096311987652524
