#wavelength (micron)	surface_flux (erg / (cm2 micron s))
0.40133895199999997	0.25314541223774145
0.40267674850666674	0.21889894396169784
0.40401900433502225	0.03036621772744772
0.4053657343494724	0.032732058343675534
0.4067169534639707	0.3389465331358106
0.40807267664218394	1.7222668686014269
0.4094329188976579	5.793633648049399
0.41079769529398347	15.061702812316572
0.41216702094496344	32.646766111520414
0.41354091101477997	61.67641955454816
0.4149193807181627	104.22913962091869
0.41630244532055655	158.46339397203437
0.41769012013829176	202.33976334623844
0.41908242053875283	155.7178129279289
0.4204793619405487	57.034382069847986
0.42188095981368384	155.2924078272941
0.42328722967972954	531.7483333053124
0.4246981871119953	917.6263428175371
0.42611384773570193	1237.702468947584
0.4275342272281543	1566.8580074125155
0.4289593413189149	1929.9932215121985
0.43038920578997797	2331.3820964830315
0.4318238364759446	2766.3979963342813
0.43326324926419774	3264.734377669393
0.4347074600950785	3783.790730555094
0.4361564849620621	4330.763120488945
0.43761033991193565	4951.127603456539
0.4390690410449755	5652.603651973961
0.44053260451512544	6372.239773486705
0.4420010465301759	7231.641341712828
0.44347438335194317	8228.22195097723
0.4449526312964497	9286.594343099448
0.44643580673410455	10220.473699656997
0.44792392608988496	11165.780535430367
0.4494170058435179	12276.214220396287
0.450915062529663	13418.83181347905
0.4524181127380953	14525.325297332509
0.45392617311388894	14632.923191735126
0.45543926035760196	11318.136779936383
0.45695739122546064	8683.163013309751
0.4584805825295456	3935.301099602379
0.46000885113797746	2262.115730389951
0.46154221397510403	1903.0283341708152
0.4630806880216877	1510.4285378137893
0.4646242903150934	1163.7560383597765
0.4661730379494771	902.2945708308407
0.4677269480759754	698.5410454228381
0.4692860379028953	517.9422891213841
0.47085032469590504	366.55052288447
0.4724198257782247	252.3701158058423
0.47399455853081884	173.75059869455953
0.4755745403925883	122.90620814657582
0.4771597888605636	90.81421442151913
0.47875032149009894	70.47371476233394
0.4803461558950659	55.09464120437837
0.48194730974804956	42.44093203138823
0.48355380078054305	32.540106380684016
0.4851656467831449	25.260900131395715
0.48678286560575545	20.229955001885365
0.4884054751577746	16.676279547637858
0.4900334934083006	14.028417788727696
0.4916669383863283	11.894633872992655
0.4933058281809494	10.055624479757745
0.4949501809415526	8.478109360065014
0.4966000148780246	7.088177237998922
0.4982553482609513	5.784047224951195
0.4999161994218212	4.638774153765177
0.5015825867532273	3.7369930492148327
0.5032545287090715	3.12129685736885
0.5049320438047684	2.8394166397676295
0.506615150617451	2.8235735663173647
0.5083038677861758	2.8423843846202455
0.5099982140121297	2.8766976595831624
0.5116982080588369	2.916063580261785
0.5134038687523664	2.9568122426030614
0.515115214981541	3.013373441097084
0.5168322656981462	3.0691749208105303
0.5185550399171401	3.1436038709802805
0.5202835567168639	3.2119516979961276
0.5220178352392535	3.2748350831634023
0.5237578946900511	3.336360298115292
0.525503754339018	3.4042566923340365
0.527255433520148	3.476250632122627
0.5290129516318819	3.5527905653710454
0.5307763281373216	3.6384291530745343
0.532545582564446	3.7336245574441973
0.5343207345063276	3.832391642520852
0.5361018036213486	3.931703910237127
0.5378888096334199	4.037566701074873
0.5396817723321979	4.140088211460212
0.5414807115733054	4.2430344838271
0.5432856472785497	4.3707421148479755
0.545096599436145	4.477512126131965
0.5469135881009322	4.571917554911424
0.5487366333946019	4.722422461081088
0.5505657555059172	4.864686370380701
0.5524009746909371	5.0000383052762345
0.5542423112732402	5.126669047085625
0.556089785644151	5.250981222043085
0.557943418262965	5.371824893121347
0.5598032296571749	5.482511528409545
0.5616692404226988	5.57902853270389
0.5635414712241079	5.666339032274746
0.5654199427948549	5.730906706869053
0.5673046759375044	5.708515230726615
0.569195691523963	5.678611997301693
0.5710930104957095	5.709359869473405
0.5729966538640286	5.682317437507904
0.5749066427102419	5.5595212437105515
0.576822998185943	5.350785173636188
0.5787457415132294	5.105558242688903
0.5806748939849402	4.754619669086618
0.58261047696489	4.3115083159165195
0.5845525118881064	3.716508190141611
0.5865010202610669	2.5618996360148425
0.588456023661937	0.9924065489726692
0.5904175437408102	0.9410373208181038
0.5923856022199464	2.999108220437702
0.5943602208940129	5.458381079085572
0.5963414216303263	7.81591124267796
0.598329226369094	10.40785935048595
0.6003236571236578	13.443986194435396
0.6023247359807368	16.9527942864923
0.6043324851006725	20.98793036873254
0.6063469267176749	25.57009061196193
0.6083680831400672	30.71856266493545
0.610395976750534	36.618459773675866
0.6124306300063692	43.267960555555334
0.6144720654397238	50.94288716623408
0.6165203056578563	59.56053809185199
0.6185753733433824	69.35890998768377
0.6206372912545272	80.36680651036251
0.6227060822253756	92.6530785486282
0.6247817691661269	106.13392877704973
0.6268643750633474	120.270687177299
0.6289539229802253	137.53750690986578
0.6310504360568261	157.9260148412708
0.6331539375103489	179.65511436935196
0.6352644506353834	207.0412511212977
0.6373819988041681	234.68865954781316
0.6395066054668487	264.0831183388797
0.6416382941517382	301.47937633888967
0.6437770884655775	337.62013532089543
0.6459230120937961	360.5429298392888
0.6480760888007754	408.51931886335194
0.6502363424301114	486.2450181744059
0.6524037969048785	558.8781745515347
0.6545784762278948	636.1469165436641
0.6567604044819878	719.0615838031274
0.6589496058302612	827.9260827921598
0.6611461045163621	946.1558437348705
0.66334992486475	1091.3139270630109
0.6655610912809659	1246.5969703748335
0.6677796282519025	1426.0960929069354
0.6700055603460756	1548.258990475554
0.6722389122138959	1748.79838551217
0.6744797085879423	2052.620823801344
0.6767279742832354	2268.9055731996446
0.6789837341975129	2448.030936920479
0.6812470133115047	2575.2451523754535
0.6835178366892097	2620.62267144508
0.6857962294781739	2549.0962200659146
0.6880822169097679	2375.5497534354986
0.6903758242994671	2107.6315494062073
0.6926770770471321	1764.4518301010198
0.6949860006372892	1667.3466897809485
0.6973026206394136	1736.8862728503998
0.6996269627082117	1709.5602397485038
0.7019590525839058	1635.0981543879282
0.7042989160925188	1696.7554797588746
0.7066465791461606	1795.1093329294265
0.7090020677433145	1859.6343695829605
0.7113654079691256	1912.9117033654163
0.7137366259956894	1923.0846386563196
0.7161157480823418	1686.3284120244123
0.7185028005759496	1499.0746913324185
0.7208978099112028	1578.423284580703
0.7233008026109069	1676.6727615474877
0.7257118052862767	1618.7965866214483
0.728130844637231	1679.7019218786613
0.7305579474526884	1615.164704009333
0.7329931406108642	1584.3898035865582
0.7354364510795671	1593.1008595857916
0.7378879059164991	1756.8726846135412
0.7403475322695541	1961.0508080800707
0.7428153573771193	2099.895031320591
0.7452914085683765	2167.270247882252
0.7477757132636044	2266.8552923422176
0.7502682989744831	2281.1193832182707
0.7527691933043982	2290.490483836456
0.7552784239487462	2309.37007603498
0.7577960186952422	2309.850793153558
0.7603220054242263	2238.1037287840804
0.7628564121089738	1858.604861570448
0.7653992668160038	983.7110260673321
0.7679505977053904	578.5007428311283
0.7705104330310751	888.4842628479754
0.7730788011411788	1723.4566952628365
0.7756557304783162	2488.310603070934
0.7782412495799106	2959.2287428641075
0.7808353870785104	3304.538309749906
0.7834381717021055	3952.4164001947734
0.7860496322744459	4313.757066403944
0.7886697977153608	4895.813971708053
0.7912986970410787	5781.7437328656715
0.793936359364549	5997.266715731566
0.7965828138957642	6498.017460825059
0.7992380899420836	7685.145885030226
0.8019022169085571	8758.539508092274
0.8045752242982523	9750.0259678712
0.80725714171258	10414.694837276364
0.809947998851622	9876.310944132618
0.8126478255144608	9051.86771955584
0.8153566515995091	8423.909200095142
0.8180745071048409	10325.691463498208
0.8208014221285237	14234.564201638017
0.8235374268689521	15537.994310017426
0.8262825516251822	18504.97730575923
0.8290368267972661	19508.673508988777
0.8318002828865904	20395.249168739974
0.8345729504962124	21265.391210173788
0.8373548603311998	23086.528407991806
0.8401460431989706	29433.015536310268
0.8429465300096338	32443.87870601419
0.8457563517763327	36844.610702212325
0.8485755396155872	42216.398845982745
0.8514041247476393	45017.83981332902
0.8542421384967981	51150.02561717372
0.8570896122917875	59761.470700321435
0.8599465776660935	66934.9814651437
0.8628130662583139	73682.04769123223
0.8656891098125085	80574.5061847868
0.8685747401785502	87225.01362359883
0.8714699893124788	94163.72658185764
0.8743748892768537	102446.8778765638
0.8772894722411099	111118.2627355979
0.8802137704819137	117821.55525998675
0.8831478163835201	121641.0079659083
0.8860916424381319	114143.00734038271
0.8890452812462591	87310.54062281334
0.89200876551708	61932.06564051342
0.8949821280688037	69246.95178892592
0.8979654018290332	75526.13795575943
0.90095861983513	82361.93872183701
0.9039618152345804	128358.65376439913
0.9069750212853626	131700.2478480045
0.9099982713563137	137301.9223994928
0.9130315989275016	171012.675842332
0.9160750375905932	190967.04768527357
0.9191286210492287	228146.7556767421
0.9221923831193928	291649.6708873107
0.9252663577297908	256668.94887246244
0.9283505789222235	115799.19340812443
0.9314450808519644	41071.18024298419
0.9345498977881376	43923.9380075574
0.9376650641140981	81598.47780925453
0.940790614327812	160958.20077134878
0.9439265830422381	182508.94616679935
0.9470730049857122	168928.29346230382
0.9502299150023314	113319.84911942238
0.9533973480523392	116511.23758814498
0.9565753392125138	117396.71343375648
0.9597639236765556	120799.59271177888
0.9629631367554774	98296.22865682734
0.9661730138779958	188323.67137759706
0.9693935905909224	313884.62112285674
0.972624902559559	378008.3953502452
0.9758669855680909	361428.73900040146
0.9791198755199847	394932.31388700625
0.9823836084383848	411757.6042096322
0.9856582204665127	500123.5284400413
0.9889437478680678	642463.4101585442
0.9922402270276282	676030.221729451
0.9955476944510537	706750.93211094
0.9988661867658906	690697.1850347724
1.002195740721777	668373.987111443
1.0055363931908496	854181.7097923065
1.0088881811681525	971992.5490967848
1.0122511417720463	1056674.0260082688
1.01562531224462	962391.5207310534
1.019010729952102	888153.1696214986
1.0224074323852759	943022.1127173835
1.0258154571598936	1187952.1216087204
1.0292348420170931	1348133.61280012
1.0326656248238169	1298049.6129334753
1.0361078435732296	1205686.7967394746
1.0395615363851405	1433002.2934979443
1.0430267415064245	1802824.8792036725
1.0465034973114462	1973080.8827135672
1.0499918423024843	1986531.0666311772
1.0534918151101593	2217521.004394013
1.05700345449386	2514515.277868057
1.0605267993421728	2675787.67028696
1.0640618886733135	2751359.8215437056
1.067608761635558	2738655.28532875
1.0711674575076766	2748321.5184118496
1.0747380156993689	2653237.700320956
1.0783204757517002	2494243.467731863
1.0819148773375393	2441891.047977743
1.085521260261998	2303562.6984286425
1.0891396644628712	2058103.1317186912
1.092770130011081	1602972.543303665
1.0964126971111179	1079785.8288096697
1.1000674061014886	822886.2100918763
1.10373429745516	583803.8093260949
1.1074134117800107	232045.47799269954
1.1111047898192774	94379.4732841253
1.1148084724520084	82631.61826707784
1.1185245006935154	86124.70402147075
1.1222529156958272	108213.26093307814
1.1259937587481466	110225.88144512312
1.1297470712773072	110578.23212852143
1.1335128948482316	53131.94769562016
1.1372912711643925	87987.99512897407
1.1410822420682738	160371.69321134526
1.1448858495418348	114539.31511427824
1.1487021357069744	52981.74690048662
1.1525311428259977	32557.04887073099
1.1563729133020846	12501.59429907865
1.1602274896797582	12018.326962188792
1.1640949146453576	37996.17579357475
1.1679752310275089	86641.78199770543
1.1718684817976006	55838.695425249614
1.1757747100702594	33119.46197024359
1.1796939591038271	88455.89775814285
1.1836262723008397	119952.2462391553
1.1875716932085094	169058.79529050633
1.1915302655192046	200717.93213457026
1.1955020330709352	276187.1924349313
1.1994870398478386	471454.6224524157
1.2034853299806647	632836.1652820639
1.207496947747267	646780.3552849076
1.2115219375730912	696184.6807269981
1.2155603440316685	862398.3787348064
1.2196122118451074	1091892.4452111507
1.2236775858845912	1342577.1372784146
1.2277565111708733	1800872.022007926
1.2318490328747762	2153191.5853962605
1.2359551963176922	2534589.31846195
1.2400750469720847	3132813.010406044
1.2442086304619917	3724046.8964547655
1.248355992563532	4207603.107411677
1.2525171792054102	4446608.817553219
1.2566922364694284	4883579.1160377385
1.2608812105909932	5398088.648427419
1.2650841479596302	5621803.688785515
1.2693010951194956	5725205.202351162
1.273532098769894	5290906.317496465
1.2777772057657937	4389763.451820669
1.2820364631183463	3570071.8223629235
1.2863099179954076	2589049.221240066
1.2905976177220593	2079839.2351413344
1.2948996097811327	1881213.6094797202
1.2992159418137368	1736833.0978400868
1.3035466616197826	1474876.1223227715
1.3078918171585154	1126183.8476222125
1.3122514565490437	685751.7404854328
1.3166256280708741	677243.1190366086
1.3210143801644436	755539.4355061466
1.3254177614316587	603708.3610057825
1.329835820636431	301511.2702325415
1.3342686067052192	102336.96992275308
1.33871616872757	32769.47858127918
1.343178555956662	9488.943306807649
1.347655817809851	2890.226161222464
1.352148003869217	2252.578740092091
1.3566551638821147	829.6884695703872
1.3611773477617217	274.82239517103767
1.3657146055875944	277.089400998795
1.3702669876062197	450.32417025980266
1.3748345442315741	1422.6550186040768
1.3794173260456792	1979.5450928269304
1.384015383799165	704.4648960484807
1.388628768411829	1077.9516455492999
1.3932575309732018	2097.8703861689705
1.3979017227431125	1943.5117263700552
1.4025613951522564	3504.275868034034
1.407236599802764	3697.2819196966275
1.4119273884687735	4610.539104777565
1.4166338130970026	3094.5714520845486
1.4213559258073263	3106.730576881511
1.4260937788933508	4732.471915356376
1.4308474248229952	6613.175048244691
1.4356169162390722	9280.695322787622
1.4404023059598692	21291.567434824243
1.4452036469797356	29153.052121773242
1.450020992469668	34004.624191121715
1.4548543957779003	40065.76130894781
1.4597039104304934	45689.82275869672
1.4645695901319284	46619.3323425199
1.469451488765702	25075.542092223834
1.4743496603949209	9031.646545323109
1.479264159262904	9649.737085135437
1.4841950397937806	10400.175104272224
1.4891423565930935	10392.259601957949
1.4941061644484037	17305.90751411903
1.4990865183298985	34003.79105021654
1.5040834733909982	33634.459175545446
1.5090970849689684	34808.49074195667
1.5141274085855316	15579.675678100404
1.5191744999474837	27618.29151161897
1.5242384149473087	62082.54106110186
1.5293192096638	110274.42041622302
1.5344169403626793	127685.14926336678
1.5395316634972218	151712.59303918938
1.544663435708879	189118.47653903143
1.5498123138279087	289277.9144563043
1.554978354874002	449641.6277485149
1.5601616160569156	500511.7286616934
1.5653621547771055	772213.2774828633
1.5705800286263625	1203978.003924629
1.5758152953884506	1457273.2963275183
1.5810680130397454	1694579.2438641815
1.5863382397498782	1819857.1618602881
1.5916260338823778	1980066.0702392021
1.5969314539953192	1771874.9143067836
1.6022545588419705	1278929.0340946647
1.6075954073714436	837249.3344831582
1.6129540587293487	495247.50491746335
1.6183305722584467	275530.11651903926
1.6237250074993084	156489.0828774419
1.6291374241909726	118274.00065443422
1.6345678822716092	89511.57275332377
1.6400164418791816	62290.532313530806
1.6454831633521123	88591.93236933257
1.6509681072299527	111369.58299301291
1.6564713342540527	138126.33860586473
1.6619929053682332	166877.66082278595
1.6675328817194608	80003.18158846853
1.6730913246585257	30211.678980355107
1.6786682957407209	76163.2393066193
1.6842638567265233	105225.29378090215
1.6898780695822784	65580.7074177207
1.6955109964808863	26847.288517277208
1.7011626998024894	26240.495274226698
1.7068332421351646	50783.36942936836
1.7125226862756153	64652.293641708384
1.7182310952298672	86080.34351080822
1.7239585322139668	83113.39902492159
1.7297050606546804	49975.56981039531
1.7354707441901962	50224.853475557415
1.7412556466708302	58620.53834351351
1.747059832159733	89672.92465511683
1.752883364933599	116355.71861676838
1.7587263094833776	88239.47103208023
1.7645887305149892	66749.99301465311
1.7704706929500391	46701.383871666534
1.7763722619265396	51895.70195002614
1.7822935027996283	49089.53916472258
1.7882344811422937	35613.79472545724
1.7941952627461015	20996.87966444797
1.8001759136219222	19905.60656972671
1.8061765000006618	11563.270901990627
1.8121970883339975	12087.678764245933
1.818237745295111	21731.455668198316
1.8242985377794283	30963.61563353737
1.8303795329053596	12677.226790318822
1.8364807980150446	5114.057319422685
1.8426024006750947	11283.575797841027
1.8487444086773455	19235.848692614032
1.8549068900396033	16928.447639721126
1.861089913006402	6042.84407247594
1.8672935460497566	2794.073149531519
1.873517857869923	3532.3999581508606
1.879762917396156	16567.397743979578
1.8860287937874767	30952.669410866176
1.8923155564334353	40493.47403539082
1.8986232749548801	36934.55277428024
1.9049520192047298	15470.377333042978
1.9113018592687456	12264.873827770112
1.9176728654663082	7772.140720919392
1.9240651083511964	7789.479946997252
1.9304786587123668	3581.448885264983
1.9369135875747419	1069.6199869862367
1.9433699661999908	1686.7013127944385
1.9498478660873244	2740.401229868078
1.9563473589742824	4885.249922620328
1.9628685168375302	11272.866394558854
1.9694114118936552	18665.930569042936
1.9759761165999676	24230.00042971741
1.9825627036553009	30463.340220084607
1.9891712460008188	38396.44615577867
1.9958018168208218	45314.907599835686
2.002454489543558	45506.76339837481
2.0091293378420367	42555.124525203355
2.0158264356348434	37271.062257260695
2.02254585708696	29037.92330794553
2.029287676610583	50763.09063249825
2.036051968865952	61571.6661447497
2.042838808762172	74658.51812009029
2.049648271458046	89246.622466282
2.0564804323629065	105344.56798458527
2.0633353671374497	128672.23647240014
2.0702131516945745	159557.52085884407
2.0771138622002234	154309.3323208323
2.084037575074224	155070.2807374797
2.0909843669911385	157180.25361663318
2.097954314881109	155318.65401082844
2.1049474959307126	163495.9224654004
2.1119639875838154	169688.9544970902
2.1190038675424283	160008.54943666092
2.12606721376757	151691.23998558105
2.1331541044801288	139097.3961079016
2.140264618161729	123864.86746287583
2.147398833555602	113508.55706912091
2.154556829667454	92453.168853026
2.1617386857663456	73105.94011166078
2.1689444813855667	63477.60426066438
2.176174296323519	52575.71019994137
2.1834282106445975	44832.13818757592
2.19070630468008	23433.834781205813
2.1980086590290138	5677.931217435307
2.2053353545591103	5070.7160737939475
2.2126864724076407	11884.281239982802
2.220062093982333	8432.015193280191
2.2274623009622747	5607.748963734437
2.2348871752988155	4385.892126482067
2.2423367992164787	2632.330190479598
2.2498112552138667	1762.8857870859094
2.25731062606458	1662.1094621689556
2.2648349948181288	778.5972977555855
2.272384444800856	1004.9642923846324
2.2799590596168593	1870.6641072834548
2.2875589231489153	1748.4563337228988
2.295184119559412	1558.30657643436
2.302834733291277	4087.9248613588093
2.3105108490689146	7806.82934268414
2.3182125518991445	3831.5238489596873
2.325939927072142	1438.0057393424763
2.3336930601623824	1394.813973046914
2.341472037029591	643.7740375891091
2.3492769438196897	957.4927922515739
2.3571078669657557	3586.6623621683098
2.364964893188975	5332.963029578276
2.372848109499605	2632.9613680711045
