#wavelength (micron)	surface_flux (erg / (cm2 micron s))
0.40133895199999997	1.2787458529228117
0.40267674850666674	1.0946287324205546
0.40401900433502225	0.14887501216706828
0.4053657343494724	0.1576796106271692
0.4067169534639707	1.6624091191716108
0.40807267664218394	8.812678196310964
0.4094329188976579	30.876970767797136
0.41079769529398347	82.20333189823981
0.41216702094496344	180.33939020609859
0.41354091101477997	343.02373368938936
0.4149193807181627	582.3751629978735
0.41630244532055655	887.2406218328867
0.41769012013829176	1133.5536748739432
0.41908242053875283	879.5380969355107
0.4204793619405487	341.00622084213876
0.42188095981368384	900.8590394478181
0.42328722967972954	2931.960428851987
0.4246981871119953	4991.365894595078
0.42611384773570193	6668.104794591628
0.4275342272281543	8353.54152176817
0.4289593413189149	10200.336867643557
0.43038920578997797	12200.574779731127
0.4318238364759446	14284.351455057324
0.43326324926419774	16685.69254104049
0.4347074600950785	18884.279437228524
0.4361564849620621	21096.518484839788
0.43761033991193565	23784.485224379376
0.4390690410449755	26952.263681306067
0.44053260451512544	29885.396152624606
0.4420010465301759	33516.72143794907
0.44347438335194317	37871.735213859494
0.4449526312964497	42382.04806871295
0.44643580673410455	45694.48377500202
0.44792392608988496	48833.35753855962
0.4494170058435179	52929.755738311986
0.450915062529663	56827.41362586497
0.4524181127380953	60479.936432139606
0.45392617311388894	62236.47523743045
0.45543926035760196	52445.4903567474
0.45695739122546064	42134.83881404876
0.4584805825295456	23594.892119300654
0.46000885113797746	16706.646423633323
0.46154221397510403	14480.052711113336
0.4630806880216877	11822.931488092987
0.4646242903150934	9299.042449699587
0.4661730379494771	7370.294447663041
0.4677269480759754	5740.930068600463
0.4692860379028953	4182.056514261071
0.47085032469590504	2808.6920294918486
0.4724198257782247	1749.7004912369214
0.47399455853081884	1042.0734447852155
0.4755745403925883	621.3015622003585
0.4771597888605636	387.5597517558404
0.47875032149009894	260.1793730943095
0.4803461558950659	182.2474866359763
0.48194730974804956	130.74318572460277
0.48355380078054305	97.1860810118134
0.4851656467831449	75.63456477803757
0.48678286560575545	61.7263810192662
0.4884054751577746	52.18908166476526
0.4900334934083006	45.19238079421081
0.4916669383863283	39.40837840131473
0.4933058281809494	34.20787598332544
0.4949501809415526	29.51066565935637
0.4966000148780246	25.120142618725332
0.4982553482609513	20.81837350434016
0.4999161994218212	16.836605840919933
0.5015825867532273	13.570779160110042
0.5032545287090715	11.298965576476878
0.5049320438047684	10.146453452041962
0.506615150617451	9.83459475901211
0.5083038677861758	9.76067223452011
0.5099982140121297	9.755524436329956
0.5116982080588369	9.741555452664722
0.5134038687523664	9.723904604197271
0.515115214981541	9.757117783826914
0.5168322656981462	9.801177598060663
0.5185550399171401	9.87137856679332
0.5202835567168639	9.920491266445467
0.5220178352392535	9.953907124231941
0.5237578946900511	9.978412376857259
0.525503754339018	10.011507444875145
0.527255433520148	10.051435462479034
0.5290129516318819	10.10210879924559
0.5307763281373216	10.174242326148628
0.532545582564446	10.269842622706381
0.5343207345063276	10.376385213184104
0.5361018036213486	10.489347851283133
0.5378888096334199	10.61684598243908
0.5396817723321979	10.73530866410175
0.5414807115733054	10.860187652350746
0.5432856472785497	11.039009078429775
0.545096599436145	11.185697004675772
0.5469135881009322	11.31274307640171
0.5487366333946019	11.521584065762255
0.5505657555059172	11.712238212874663
0.5524009746909371	11.89562319531165
0.5542423112732402	12.064605225312153
0.556089785644151	12.216996727147379
0.557943418262965	12.356521682053755
0.5598032296571749	12.469589058566566
0.5616692404226988	12.54538715085049
0.5635414712241079	12.592161826720812
0.5654199427948549	12.590334795260105
0.5673046759375044	12.438900760131302
0.569195691523963	12.280431743534956
0.5710930104957095	12.204830708071883
0.5729966538640286	12.00596003329982
0.5749066427102419	11.676475154775313
0.576822998185943	11.223940597723438
0.5787457415132294	10.69362133828663
0.5806748939849402	9.957924627727628
0.58261047696489	9.004515601218293
0.5845525118881064	7.66265993270515
0.5865010202610669	5.18589794998368
0.588456023661937	1.9950122703095219
0.5904175437408102	1.8998341178962392
0.5923856022199464	6.076573159136517
0.5943602208940129	11.193563300043534
0.5963414216303263	16.09992880218744
0.598329226369094	21.34890007904924
0.6003236571236578	27.378384744716843
0.6023247359807368	34.43841689485172
0.6043324851006725	42.798814177201706
0.6063469267176749	52.53393752623813
0.6083680831400672	63.64567975518166
0.610395976750534	76.51004139981497
0.6124306300063692	91.18248239662965
0.6144720654397238	108.13644216353464
0.6165203056578563	127.39308865589344
0.6185753733433824	149.488502471563
0.6206372912545272	174.70088271404603
0.6227060822253756	203.3563455155099
0.6247817691661269	235.51336432583253
0.6268643750633474	270.88417860269595
0.6289539229802253	313.8889081007041
0.6310504360568261	364.4002798060394
0.6331539375103489	420.1221913262156
0.6352644506353834	488.62722133695655
0.6373819988041681	561.9701396835121
0.6395066054668487	643.219142345441
0.6416382941517382	741.2933193072273
0.6437770884655775	843.8788243639401
0.6459230120937961	935.8516747722977
0.6480760888007754	1070.3399872816312
0.6502363424301114	1255.2754829476976
0.6524037969048785	1443.7585034411088
0.6545784762278948	1652.8270978178566
0.6567604044819878	1879.516079312176
0.6589496058302612	2156.7249355546305
0.6611461045163621	2465.889051048917
0.66334992486475	2827.815460723112
0.6655610912809659	3220.105975034083
0.6677796282519025	3648.6006316108546
0.6700055603460756	3921.404461395106
0.6722389122138959	4401.945136774109
0.6744797085879423	5153.903723271486
0.6767279742832354	5682.316951791515
0.6789837341975129	6124.300626911591
0.6812470133115047	6438.593537449703
0.6835178366892097	6552.762446300533
0.6857962294781739	6399.674980768602
0.6880822169097679	6000.066610642878
0.6903758242994671	5393.653225296339
0.6926770770471321	4673.130595074562
0.6949860006372892	4342.894801844818
0.6973026206394136	4309.899760676715
0.6996269627082117	4209.713049129608
0.7019590525839058	4103.965609556349
0.7042989160925188	4207.462472426365
0.7066465791461606	4380.251441565769
0.7090020677433145	4516.205379460018
0.7113654079691256	4615.597550931332
0.7137366259956894	4643.373219515748
0.7161157480823418	4276.752872581728
0.7185028005759496	3974.1157523481606
0.7208978099112028	4068.231865385464
0.7233008026109069	4124.218339887787
0.7257118052862767	3932.433353814249
0.728130844637231	3941.2206817554475
0.7305579474526884	3790.454357243304
0.7329931406108642	3683.33559520714
0.7354364510795671	3614.684219875297
0.7378879059164991	3748.0615336862347
0.7403475322695541	3918.930735008244
0.7428153573771193	4018.2853189918014
0.7452914085683765	4019.670473935898
0.7477757132636044	4070.078647907601
0.7502682989744831	4019.7484039228107
0.7527691933043982	3952.1816526978355
0.7552784239487462	3895.4851165759105
0.7577960186952422	3809.934138159087
0.7603220054242263	3629.410593317061
0.7628564121089738	2961.8367758587706
0.7653992668160038	1576.6137020697336
0.7679505977053904	952.386329520012
0.7705104330310751	1434.948434407487
0.7730788011411788	2679.109251961535
0.7756557304783162	3848.6868167105754
0.7782412495799106	4686.085211895508
0.7808353870785104	5376.626532737364
0.7834381717021055	6630.121687640602
0.7860496322744459	7507.128516661669
0.7886697977153608	8660.708409703588
0.7912986970410787	10205.04530272179
0.793936359364549	10620.758376124391
0.7965828138957642	11993.130135138714
0.7992380899420836	14903.175904000957
0.8019022169085571	17301.61516143008
0.8045752242982523	19690.714476057514
0.80725714171258	21777.82343049056
0.809947998851622	22374.126458624953
0.8126478255144608	22665.304876340382
0.8153566515995091	22988.59489660454
0.8180745071048409	27459.325133265567
0.8208014221285237	35424.6262346218
0.8235374268689521	39347.23694744115
0.8262825516251822	46177.147761184206
0.8290368267972661	50428.00462826542
0.8318002828865904	54542.075827856206
0.8345729504962124	58931.77403112127
0.8373548603311998	64890.05233397782
0.8401460431989706	77941.42998268167
0.8429465300096338	86476.13252276264
0.8457563517763327	97368.88585250487
0.8485755396155872	109522.40254051665
0.8514041247476393	115167.5754840855
0.8542421384967981	129992.33540300121
0.8570896122917875	151792.1681139918
0.8599465776660935	168779.97737385222
0.8628130662583139	185551.1410702803
0.8656891098125085	203106.59430622117
0.8685747401785502	220984.39134550613
0.8714699893124788	239951.58045532787
0.8743748892768537	261389.7764418983
0.8772894722411099	284057.3857311626
0.8802137704819137	304941.67511782714
0.8831478163835201	322382.1195348843
0.8860916424381319	322979.8850770109
0.8890452812462591	290169.1220763773
0.89200876551708	249295.86749106427
0.8949821280688037	259645.41321971963
0.8979654018290332	283794.9078217565
0.90095861983513	319827.7374378284
0.9039618152345804	433659.09558040684
0.9069750212853626	457183.60479855526
0.9099982713563137	475207.9737973799
0.9130315989275016	550820.2347696573
0.9160750375905932	612526.6614456965
0.9191286210492287	689810.8611251517
0.9221923831193928	801684.7927058794
0.9252663577297908	733181.2701738538
0.9283505789222235	382979.7226178972
0.9314450808519644	193778.36034388878
0.9345498977881376	238997.7563324941
0.9376650641140981	382413.03630166425
0.940790614327812	637559.7695765472
0.9439265830422381	686760.6035353052
0.9470730049857122	632174.4384991075
0.9502299150023314	495782.6061766708
0.9533973480523392	535718.9435705008
0.9565753392125138	515493.8480391147
0.9597639236765556	537922.2053778957
0.9629631367554774	499327.87480929587
0.9661730138779958	767247.6097555427
0.9693935905909224	1093834.9335930494
0.972624902559559	1298509.5426429042
0.9758669855680909	1300963.075338573
0.9791198755199847	1465073.485947426
0.9823836084383848	1616567.825307291
0.9856582204665127	1846891.9122255961
0.9889437478680678	2208064.663327351
0.9922402270276282	2370408.377671432
0.9955476944510537	2516580.297165434
0.9988661867658906	2369309.5113304355
1.002195740721777	2271088.75095065
1.0055363931908496	2898177.345446019
1.0088881811681525	3202051.2462372025
1.0122511417720463	3409972.5421120184
1.01562531224462	3323309.5562145663
1.019010729952102	3288815.1842125766
1.0224074323852759	3494543.43734034
1.0258154571598936	4025947.895518593
1.0292348420170931	4416371.4993555015
1.0326656248238169	4406587.728818034
1.0361078435732296	4357959.265055543
1.0395615363851405	4771978.567423484
1.0430267415064245	5360526.361988976
1.0465034973114462	5684420.1451013535
1.0499918423024843	5794432.1074069515
1.0534918151101593	6143647.671045337
1.05700345449386	6541969.068782541
1.0605267993421728	6775748.577649498
1.0640618886733135	6900568.5436210055
1.067608761635558	6902517.802932423
1.0711674575076766	6931615.751618422
1.0747380156993689	6835385.916974447
1.0783204757517002	6654688.606738369
1.0819148773375393	6585352.820123657
1.085521260261998	6325837.192197716
1.0891396644628712	5766976.528215001
1.092770130011081	4741054.477978737
1.0964126971111179	3560894.387286422
1.1000674061014886	2847193.8834677087
1.10373429745516	2056976.9550484878
1.1074134117800107	1035752.6382273986
1.1111047898192774	506057.8063560161
1.1148084724520084	465992.07580761204
1.1185245006935154	505819.036736264
1.1222529156958272	603153.8780730981
1.1259937587481466	667911.9224642784
1.1297470712773072	727447.0985842926
1.1335128948482316	386680.4157563972
1.1372912711643925	557543.5797631538
1.1410822420682738	889884.0164182318
1.1448858495418348	618311.8896330246
1.1487021357069744	385724.12127521797
1.1525311428259977	306565.2885520159
1.1563729133020846	152111.3634706772
1.1602274896797582	174453.87217852828
1.1640949146453576	343723.000356641
1.1679752310275089	543632.9346297258
1.1718684817976006	413854.18429935013
1.1757747100702594	362133.97469490266
1.1796939591038271	722028.1683041183
1.1836262723008397	937102.6160923274
1.1875716932085094	1297128.4329006062
1.1915302655192046	1539904.864429834
1.1955020330709352	1866787.0460121506
1.1994870398478386	2590122.067999558
1.2034853299806647	3208331.4725054796
1.207496947747267	3368109.313911785
1.2115219375730912	3599553.8877932536
1.2155603440316685	4254333.74825316
1.2196122118451074	4944711.323022847
1.2236775858845912	5638287.903411856
1.2277565111708733	6679753.434598712
1.2318490328747762	7411769.053053579
1.2359551963176922	8188288.144465432
1.2400750469720847	9282209.608097378
1.2442086304619917	10299201.505191583
1.248355992563532	11211047.550937993
1.2525171792054102	11827871.993452627
1.2566922364694284	12665333.047962988
1.2608812105909932	13546045.20722659
1.2650841479596302	13923270.269550623
1.2693010951194956	13997611.981301721
1.273532098769894	13273814.628239654
1.2777772057657937	11872611.838831266
1.2820364631183463	10512137.879743544
1.2863099179954076	8657039.924517663
1.2905976177220593	7505665.920821117
1.2948996097811327	7069829.109251263
1.2992159418137368	6635330.496676497
1.3035466616197826	5836560.234590652
1.3078918171585154	4887271.657086709
1.3122514565490437	3661260.491744084
1.3166256280708741	3501000.3808541326
1.3210143801644436	3641019.1089804117
1.3254177614316587	2883595.5447220895
1.329835820636431	1566441.241831671
1.3342686067052192	554851.0264389478
1.33871616872757	164486.19805955212
1.343178555956662	45899.312901736885
1.347655817809851	21528.017418790296
1.352148003869217	18295.42358560614
1.3566551638821147	6897.930673233488
1.3611773477617217	3096.465626117172
1.3657146055875944	4034.225237241234
1.3702669876062197	6367.916396287962
1.3748345442315741	16674.618389976247
1.3794173260456792	21403.07858274696
1.384015383799165	8321.357717803689
1.388628768411829	11746.081161142154
1.3932575309732018	21050.84793813493
1.3979017227431125	18225.470782353637
1.4025613951522564	25210.987035659797
1.407236599802764	27005.548499241122
1.4119273884687735	33900.089746696154
1.4166338130970026	24529.011593978827
1.4213559258073263	23639.403208134183
1.4260937788933508	32066.526421667462
1.4308474248229952	47534.68675612938
1.4356169162390722	64658.98229345583
1.4404023059598692	112715.88232012858
1.4452036469797356	144400.82533435064
1.450020992469668	192921.16110863953
1.4548543957779003	241005.6037816487
1.4597039104304934	276617.2790805933
1.4645695901319284	273863.03244507103
1.469451488765702	165742.36022122778
1.4743496603949209	97020.28927028086
1.479264159262904	107559.26968175522
1.4841950397937806	115317.08439000644
1.4891423565930935	118924.50896400124
1.4941061644484037	162117.19840126976
1.4990865183298985	284360.15906350885
1.5040834733909982	318050.5537141697
1.5090970849689684	324192.5104276628
1.5141274085855316	219560.9717937992
1.5191744999474837	303353.92256684677
1.5242384149473087	531192.9284399392
1.5293192096638	808920.7491692093
1.5344169403626793	984782.2616521859
1.5395316634972218	1119997.8243797165
1.544663435708879	1315127.5236797258
1.5498123138279087	1699595.4305489562
1.554978354874002	2250062.716046289
1.5601616160569156	2493520.575969378
1.5653621547771055	3213948.4446216263
1.5705800286263625	4165851.880569804
1.5758152953884506	4668514.34568444
1.5810680130397454	5135821.508019397
1.5863382397498782	5324464.729555296
1.5916260338823778	5419724.4959378475
1.5969314539953192	4961192.2201346
1.6022545588419705	3949270.603177071
1.6075954073714436	2900291.7594764433
1.6129540587293487	1979759.481799229
1.6183305722584467	1264382.5923226916
1.6237250074993084	793155.5690778784
1.6291374241909726	643412.4384910213
1.6345678822716092	503350.0596847339
1.6400164418791816	451981.80357283656
1.6454831633521123	612069.9955355537
1.6509681072299527	732114.1933530028
1.6564713342540527	806591.0905608616
1.6619929053682332	856629.590548561
1.6675328817194608	436214.2082349422
1.6730913246585257	254468.7768130041
1.6786682957407209	487270.5693916761
1.6842638567265233	573925.630222181
1.6898780695822784	390228.52902190655
1.6955109964808863	242397.87183241642
1.7011626998024894	227671.119126322
1.7068332421351646	359477.8474951302
1.7125226862756153	445200.3599823739
1.7182310952298672	539245.5687733403
1.7239585322139668	526057.6191938774
1.7297050606546804	403469.00308806397
1.7354707441901962	363739.7677840202
1.7412556466708302	370760.7233452908
1.747059832159733	477024.340796102
1.752883364933599	563494.5718749829
1.7587263094833776	463477.29764383205
1.7645887305149892	361560.03920274536
1.7704706929500391	251901.59648108674
1.7763722619265396	227274.8934543502
1.7822935027996283	214073.40803830625
1.7882344811422937	172879.03926860698
1.7941952627461015	102032.48070941241
1.8001759136219222	89849.45176955803
1.8061765000006618	59072.12604765252
1.8121970883339975	70578.36010614574
1.818237745295111	102061.36575974453
1.8242985377794283	120980.826334743
1.8303795329053596	57226.29088944082
1.8364807980150446	35393.50775200161
1.8426024006750947	58492.596354994945
1.8487444086773455	89082.54876514211
1.8549068900396033	82372.05528348777
1.861089913006402	33147.63412996966
1.8672935460497566	17784.474838530805
1.873517857869923	28739.939240548134
1.879762917396156	85271.61452423586
1.8860287937874767	142430.79880556886
1.8923155564334353	192931.3202709936
1.8986232749548801	177838.5608519376
1.9049520192047298	85311.1754884106
1.9113018592687456	72616.14238196795
1.9176728654663082	55220.568959679906
1.9240651083511964	53146.571496790384
1.9304786587123668	29159.51889164971
1.9369135875747419	12403.214611309162
1.9433699661999908	18504.12656723743
1.9498478660873244	29209.86207574568
1.9563473589742824	39650.97137771287
1.9628685168375302	67105.70851855694
1.9694114118936552	102517.48209111053
1.9759761165999676	126718.24526647286
1.9825627036553009	159805.035014181
1.9891712460008188	194471.29337062876
1.9958018168208218	219377.02435147265
2.002454489543558	225888.58581997413
2.0091293378420367	226116.6080867322
2.0158264356348434	213411.17867211057
2.02254585708696	178360.6668320927
2.029287676610583	260054.98626995055
2.036051968865952	307466.17430545593
2.042838808762172	353446.70330824575
2.049648271458046	404820.5156390239
2.0564804323629065	456241.67058245436
2.0633353671374497	520425.32191558194
2.0702131516945745	595169.5506305515
2.0771138622002234	586758.5746934316
2.084037575074224	594207.8394627102
2.0909843669911385	602943.460097708
2.097954314881109	596865.414733058
2.1049474959307126	607804.6920035278
2.1119639875838154	614927.1987547594
2.1190038675424283	592881.2951438949
2.12606721376757	567589.7421046426
2.1331541044801288	529946.3645812023
2.140264618161729	495793.65457345115
2.147398833555602	466136.2595414019
2.154556829667454	391583.7074855093
2.1617386857663456	334775.9865152526
2.1689444813855667	285110.34445213614
2.176174296323519	236070.9144848392
2.1834282106445975	207455.44833846844
2.19070630468008	128036.52882080998
2.1980086590290138	44604.86967786321
2.2053353545591103	36761.910033930624
2.2126864724076407	77526.59327328189
2.220062093982333	61263.643370355196
2.2274623009622747	45409.345143290775
2.2348871752988155	39804.37388268681
2.2423367992164787	28017.838242738304
2.2498112552138667	19742.23538411115
2.25731062606458	19902.805994655555
2.2648349948181288	11154.792212205395
2.272384444800856	11437.107211934204
2.2799590596168593	16763.024561194048
2.2875589231489153	18528.70705425318
2.295184119559412	17002.40189712772
2.302834733291277	34253.40778118064
2.3105108490689146	59729.1447392384
2.3182125518991445	29781.932537992576
2.325939927072142	14680.769859091657
2.3336930601623824	14297.391944713918
2.341472037029591	8429.910213950468
2.3492769438196897	11570.194237830852
2.3571078669657557	28570.112374444125
2.364964893188975	38992.29275286438
2.372848109499605	21768.74115911331
