#wavelength (micron)	surface_flux (erg / (cm2 micron s))
0.40133895199999997	0.35628137604763216
0.40267674850666674	0.2894408638016575
0.40401900433502225	0.03279628952153014
0.4053657343494724	0.035691894397236974
0.4067169534639707	0.4615743033904706
0.40807267664218394	2.7150044789855907
0.4094329188976579	9.893761660951567
0.41079769529398347	26.649334061587595
0.41216702094496344	58.52816321089979
0.41354091101477997	110.83296218029322
0.4149193807181627	186.51212189880553
0.41630244532055655	281.07480580736393
0.41769012013829176	356.01737906041944
0.41908242053875283	272.265582882342
0.4204793619405487	94.79279935179467
0.42188095981368384	254.78509738256201
0.42328722967972954	872.87100506972
0.4246981871119953	1482.7218396539731
0.42611384773570193	1953.5400424589116
0.4275342272281543	2423.5261445928454
0.4289593413189149	2933.725219207312
0.43038920578997797	3475.9641321409595
0.4318238364759446	4031.1825752883087
0.43326324926419774	4722.387562878545
0.4347074600950785	5365.049008247067
0.4361564849620621	5954.832633922274
0.43761033991193565	6646.494618087351
0.4390690410449755	7485.612159415636
0.44053260451512544	8235.21575727774
0.4420010465301759	9297.428656602377
0.44347438335194317	10613.747205149235
0.4449526312964497	11951.845147736105
0.44643580673410455	12745.856054590338
0.44792392608988496	13599.337545888282
0.4494170058435179	14731.694082494541
0.450915062529663	15901.043702897405
0.4524181127380953	17102.87985529097
0.45392617311388894	17373.328694914344
0.45543926035760196	12779.786216304237
0.45695739122546064	9729.215705563278
0.4584805825295456	4322.867697304787
0.46000885113797746	2395.2768022627893
0.46154221397510403	2097.80162033018
0.4630806880216877	1715.5222657463974
0.4646242903150934	1363.7519041978555
0.4661730379494771	1090.9241900931263
0.4677269480759754	868.7986298303791
0.4692860379028953	658.9735114074064
0.47085032469590504	469.80156698843285
0.4724198257782247	317.80063743183985
0.47399455853081884	208.39579776206952
0.4755745403925883	137.1864930872146
0.4771597888605636	93.25880350912352
0.47875032149009894	66.7097016309479
0.4803461558950659	48.0543187980394
0.48194730974804956	33.97451417788621
0.48355380078054305	23.941452682454674
0.4851656467831449	17.198604433785096
0.48678286560575545	12.943013882442164
0.4884054751577746	10.178462184944928
0.4900334934083006	8.233081149479425
0.4916669383863283	6.765512864820384
0.4933058281809494	5.58450219864425
0.4949501809415526	4.633598086109431
0.4966000148780246	3.844158740846445
0.4982553482609513	3.1261256696005613
0.4999161994218212	2.519898962773727
0.5015825867532273	2.0593280996810313
0.5032545287090715	1.7528087768084153
0.5049320438047684	1.6176186763433549
0.506615150617451	1.6391062346509486
0.5083038677861758	1.6732291014555853
0.5099982140121297	1.7085784902946297
0.5116982080588369	1.743703642064987
0.5134038687523664	1.7887152645525346
0.515115214981541	1.8391073553976485
0.5168322656981462	1.8863329952578578
0.5185550399171401	1.9550775305842343
0.5202835567168639	2.0158279748769825
0.5220178352392535	2.070702601494584
0.5237578946900511	2.1251234719802907
0.525503754339018	2.183664094749672
0.527255433520148	2.243865700863445
0.5290129516318819	2.3074302356802447
0.5307763281373216	2.3779914484956466
0.532545582564446	2.454394065608388
0.5343207345063276	2.5332210568604134
0.5361018036213486	2.61209253133306
0.5378888096334199	2.6983794710153135
0.5396817723321979	2.7880389720858707
0.5414807115733054	2.875866546924071
0.5432856472785497	2.978815393486342
0.545096599436145	3.0595385839096503
0.5469135881009322	3.1336495794942563
0.5487366333946019	3.2708568049995415
0.5505657555059172	3.398665645075104
0.5524009746909371	3.519628839010051
0.5542423112732402	3.6298473139927574
0.556089785644151	3.7412007894870167
0.557943418262965	3.8494050900078247
0.5598032296571749	3.9468644293804274
0.5616692404226988	4.031718073267105
0.5635414712241079	4.107073356366366
0.5654199427948549	4.1604107211318695
0.5673046759375044	4.134018294012995
0.569195691523963	4.090399581853292
0.5710930104957095	4.109748201667804
0.5729966538640286	4.1110882805765865
0.5749066427102419	4.024175269006438
0.576822998185943	3.873900382533949
0.5787457415132294	3.718875175245995
0.5806748939849402	3.491479356116957
0.58261047696489	3.192497152035421
0.5845525118881064	2.7614664438947134
0.5865010202610669	1.8815076061789628
0.588456023661937	0.7148693817230433
0.5904175437408102	0.6732037769743964
0.5923856022199464	2.183594314254874
0.5943602208940129	4.056740004652629
0.5963414216303263	5.8357887126794346
0.598329226369094	7.717237895153545
0.6003236571236578	9.937911310031016
0.6023247359807368	12.544892401454293
0.6043324851006725	15.574284836509491
0.6063469267176749	19.062282429935472
0.6083680831400672	22.998349279538427
0.610395976750534	27.368603789083235
0.6124306300063692	32.17382543659452
0.6144720654397238	37.65004491752731
0.6165203056578563	43.68996709064063
0.6185753733433824	50.5198114164594
0.6206372912545272	58.15282369332144
0.6227060822253756	66.69331783541467
0.6247817691661269	76.16918526024136
0.6268643750633474	85.94919619641514
0.6289539229802253	97.7150406442931
0.6310504360568261	112.04228603203866
0.6331539375103489	126.95916559442601
0.6352644506353834	145.6154068604719
0.6373819988041681	163.61448448772856
0.6395066054668487	181.52436063419725
0.6416382941517382	207.44418411417956
0.6437770884655775	229.99563450166374
0.6459230120937961	237.5710335356389
0.6480760888007754	268.3304378594243
0.6502363424301114	326.42086110729184
0.6524037969048785	376.79601798114504
0.6545784762278948	423.33258786549
0.6567604044819878	477.30141199014463
0.6589496058302612	549.110115293033
0.6611461045163621	621.8630620940327
0.66334992486475	711.4216282339091
0.6655610912809659	807.5481745784951
0.6677796282519025	924.958503522726
0.6700055603460756	1012.0309211543345
0.6722389122138959	1146.855609553034
0.6744797085879423	1338.6241081401179
0.6767279742832354	1483.1432118259731
0.6789837341975129	1612.1969573353051
0.6812470133115047	1720.5849185532477
0.6835178366892097	1784.3927922445016
0.6857962294781739	1776.9656561805425
0.6880822169097679	1704.4882218226057
0.6903758242994671	1551.7447671030734
0.6926770770471321	1320.2261349207822
0.6949860006372892	1287.4331896537187
0.6973026206394136	1380.8808060732547
0.6996269627082117	1361.711475829916
0.7019590525839058	1288.097333676206
0.7042989160925188	1374.4017800181466
0.7066465791461606	1480.9105881502835
0.7090020677433145	1522.1843729633924
0.7113654079691256	1581.0422330601884
0.7137366259956894	1603.7749117594626
0.7161157480823418	1408.2797833310733
0.7185028005759496	1245.563015432403
0.7208978099112028	1313.4346161836122
0.7233008026109069	1434.7080477936486
0.7257118052862767	1413.8479919879255
0.728130844637231	1473.358705379988
0.7305579474526884	1384.712127017356
0.7329931406108642	1320.2231056720584
0.7354364510795671	1324.2630575416
0.7378879059164991	1487.9917925712803
0.7403475322695541	1697.9210162159964
0.7428153573771193	1808.2123072704535
0.7452914085683765	1894.0069380725909
0.7477757132636044	1971.0895177618565
0.7502682989744831	1959.7068053826617
0.7527691933043982	1965.18031945867
0.7552784239487462	1963.6754653765863
0.7577960186952422	1960.1860323097974
0.7603220054242263	1890.2072793378697
0.7628564121089738	1518.7750305614807
0.7653992668160038	731.4407421325842
0.7679505977053904	382.41443685403954
0.7705104330310751	628.5740843940141
0.7730788011411788	1378.8455037672225
0.7756557304783162	2126.403539743124
0.7782412495799106	2565.1691757353115
0.7808353870785104	2860.3924368563644
0.7834381717021055	3441.0023089902456
0.7860496322744459	3819.384750397841
0.7886697977153608	4371.029230348425
0.7912986970410787	5111.495966934385
0.793936359364549	5276.160508713787
0.7965828138957642	5712.252784749828
0.7992380899420836	6746.53831549301
0.8019022169085571	7762.616618213532
0.8045752242982523	8655.239430705822
0.80725714171258	9209.763396979171
0.809947998851622	8769.595706035909
0.8126478255144608	7979.716334209125
0.8153566515995091	7228.690462135808
0.8180745071048409	8788.879634936984
0.8208014221285237	12538.99172323841
0.8235374268689521	13802.951243479356
0.8262825516251822	16166.402720152826
0.8290368267972661	16643.40363886435
0.8318002828865904	17213.991492890505
0.8345729504962124	17314.374115021317
0.8373548603311998	18569.54624432664
0.8401460431989706	24009.279088922514
0.8429465300096338	26109.56395074094
0.8457563517763327	29338.383063911282
0.8485755396155872	33465.507689260405
0.8514041247476393	35597.515441494455
0.8542421384967981	40741.42963290859
0.8570896122917875	47790.74861034424
0.8599465776660935	53482.412590853564
0.8628130662583139	58775.88879879396
0.8656891098125085	64083.93593726275
0.8685747401785502	69077.2110815863
0.8714699893124788	74243.97400028448
0.8743748892768537	80946.27280693199
0.8772894722411099	87843.97306877012
0.8802137704819137	92285.93231733903
0.8831478163835201	93649.09484913429
0.8860916424381319	84149.15890362818
0.8890452812462591	58514.76505315069
0.89200876551708	36031.99474284346
0.8949821280688037	44895.94212841029
0.8979654018290332	52898.38130215936
0.90095861983513	53790.874399862354
0.9039618152345804	86716.48256417934
0.9069750212853626	92207.42147886964
0.9099982713563137	103912.28811530933
0.9130315989275016	128380.95415119077
0.9160750375905932	135483.05803543935
0.9191286210492287	173583.52549079593
0.9221923831193928	242282.94404730172
0.9252663577297908	216110.61855644535
0.9283505789222235	98792.64686316357
0.9314450808519644	42640.758496952505
0.9345498977881376	39525.998167813734
0.9376650641140981	60584.3842238511
0.940790614327812	129624.95985842083
0.9439265830422381	169080.50000449413
0.9470730049857122	162860.03841834507
0.9502299150023314	97552.91932723868
0.9533973480523392	92808.67591342128
0.9565753392125138	100969.38114971567
0.9597639236765556	102519.10351633071
0.9629631367554774	75447.90831688103
0.9661730138779958	140686.97355875623
0.9693935905909224	245575.08239084002
0.972624902559559	292266.45489125303
0.9758669855680909	287566.48120058415
0.9791198755199847	300264.6146738351
0.9823836084383848	281965.07909279014
0.9856582204665127	375277.049484272
0.9889437478680678	496329.5383132287
0.9922402270276282	486734.42513348727
0.9955476944510537	464683.1368152371
0.9988661867658906	487949.07221575966
1.002195740721777	479984.1553074393
1.0055363931908496	618703.4055363871
1.0088881811681525	750363.3755158748
1.0122511417720463	883445.7230007044
1.01562531224462	811170.53920433
1.019010729952102	758673.2745951684
1.0224074323852759	817298.9832094206
1.0258154571598936	1069573.456856423
1.0292348420170931	1248804.6729227507
1.0326656248238169	1220113.1060233265
1.0361078435732296	1115907.4062507378
1.0395615363851405	1399776.0535244264
1.0430267415064245	1871143.9192738275
1.0465034973114462	2027407.0621945427
1.0499918423024843	1976855.2114620726
1.0534918151101593	2293880.6836684207
1.05700345449386	2738054.2153755957
1.0605267993421728	3001120.5700378628
1.0640618886733135	3126612.956609147
1.067608761635558	3105357.156341573
1.0711674575076766	3108144.5009581894
1.0747380156993689	2918588.228237803
1.0783204757517002	2611865.846744783
1.0819148773375393	2588187.796847634
1.085521260261998	2417187.082376526
1.0891396644628712	2103330.8278620746
1.092770130011081	1528171.753807675
1.0964126971111179	930596.3238745251
1.1000674061014886	723680.6902111844
1.10373429745516	584444.8465993167
1.1074134117800107	216943.2454839022
1.1111047898192774	87295.26195459974
1.1148084724520084	70779.91035423837
1.1185245006935154	66677.49249383238
1.1222529156958272	88633.72058875822
1.1259937587481466	91520.16743919806
1.1297470712773072	83891.02335181575
1.1335128948482316	35266.44254568082
1.1372912711643925	55867.20595876745
1.1410822420682738	111657.41979631444
1.1448858495418348	93286.46576425941
1.1487021357069744	40397.5170735037
1.1525311428259977	16798.471564078904
1.1563729133020846	5914.013817483837
1.1602274896797582	4966.426653902867
1.1640949146453576	22294.000353999658
1.1679752310275089	59064.47171513758
1.1718684817976006	35219.91534885695
1.1757747100702594	14043.951381170744
1.1796939591038271	43867.415977906094
1.1836262723008397	60537.15425293706
1.1875716932085094	85955.48922026364
1.1915302655192046	99610.62464306148
1.1955020330709352	155591.69996171267
1.1994870398478386	321248.07868519577
1.2034853299806647	466248.9795739135
1.207496947747267	485359.16999541724
1.2115219375730912	546919.498659726
1.2155603440316685	652839.2184065352
1.2196122118451074	883258.0725532193
1.2236775858845912	1184406.2540608207
1.2277565111708733	1717589.7796885471
1.2318490328747762	2200054.954886566
1.2359551963176922	2596862.1028596745
1.2400750469720847	3310439.853288366
1.2442086304619917	4162006.57075118
1.248355992563532	4758191.007732896
1.2525171792054102	4969267.2292439
1.2566922364694284	5569716.1746706525
1.2608812105909932	6018410.065978583
1.2650841479596302	5992052.770449053
1.2693010951194956	6027031.5585457
1.273532098769894	5795692.23488832
1.2777772057657937	4817953.19383172
1.2820364631183463	3702501.434562466
1.2863099179954076	2455979.6554299537
1.2905976177220593	2040420.1261831294
1.2948996097811327	1756366.7179888098
1.2992159418137368	1598777.0924362086
1.3035466616197826	1316756.3996823516
1.3078918171585154	911628.5304668482
1.3122514565490437	461990.61497935466
1.3166256280708741	495253.6790486845
1.3210143801644436	553502.1426948563
1.3254177614316587	426509.9408737151
1.329835820636431	200731.49338393714
1.3342686067052192	68264.05991844603
1.33871616872757	25104.907118503597
1.343178555956662	10066.325984229223
1.347655817809851	2726.6205737563914
1.352148003869217	1926.7576721256437
1.3566551638821147	1021.9617277566738
1.3611773477617217	352.295990148869
1.3657146055875944	313.5925222932285
1.3702669876062197	528.0203557399794
1.3748345442315741	1311.5501070870525
1.3794173260456792	1837.1661312780554
1.384015383799165	792.3455336897778
1.388628768411829	853.0735163242474
1.3932575309732018	1542.1691473555277
1.3979017227431125	1643.205545884002
1.4025613951522564	3470.889400996171
1.407236599802764	3613.776825830137
1.4119273884687735	4036.8854170893696
1.4166338130970026	2645.8597167208136
1.4213559258073263	2724.1613646170463
1.4260937788933508	4875.514079624354
1.4308474248229952	6192.069078279229
1.4356169162390722	7919.545387127508
1.4404023059598692	19848.42000738526
1.4452036469797356	27396.589067884106
1.450020992469668	24879.11776761997
1.4548543957779003	25741.680268984503
1.4597039104304934	29889.63367145473
1.4645695901319284	37535.98867018278
1.469451488765702	21240.008009507746
1.4743496603949209	6252.003318220079
1.479264159262904	7055.889507447835
1.4841950397937806	8268.701120736145
1.4891423565930935	8399.77298153212
1.4941061644484037	16438.74899673969
1.4990865183298985	36999.40339270495
1.5040834733909982	32805.5490515777
1.5090970849689684	38632.335811003344
1.5141274085855316	18936.03054320628
1.5191744999474837	28686.35115763835
1.5242384149473087	62503.55202795838
1.5293192096638	111099.40116291156
1.5344169403626793	109247.57368670564
1.5395316634972218	138799.01572549238
1.544663435708879	171874.21439388258
1.5498123138279087	285371.673907522
1.554978354874002	484219.3618782368
1.5601616160569156	468295.57504730864
1.5653621547771055	677715.9110367853
1.5705800286263625	1129604.3610849532
1.5758152953884506	1428779.3726412884
1.5810680130397454	1627580.0240067176
1.5863382397498782	1685457.4692083322
1.5916260338823778	1875126.827007576
1.5969314539953192	1572227.0917678832
1.6022545588419705	977029.5304884246
1.6075954073714436	570922.0124026046
1.6129540587293487	310626.3681198762
1.6183305722584467	172050.91160575493
1.6237250074993084	101061.85423242993
1.6291374241909726	82511.16288204832
1.6345678822716092	64342.51652945236
1.6400164418791816	36208.37563888723
1.6454831633521123	57590.22233123895
1.6509681072299527	81009.98685424551
1.6564713342540527	95095.11673002999
1.6619929053682332	107000.42722730352
1.6675328817194608	52018.623262691784
1.6730913246585257	14162.394919206225
1.6786682957407209	41435.51311048611
1.6842638567265233	64569.98381164812
1.6898780695822784	41711.6599185061
1.6955109964808863	13215.72741358768
1.7011626998024894	15607.135277177973
1.7068332421351646	34313.204540304214
1.7125226862756153	39726.83616403519
1.7182310952298672	50264.09240810627
1.7239585322139668	47341.41051917652
1.7297050606546804	25295.996874337536
1.7354707441901962	31337.357813448638
1.7412556466708302	37300.323594812086
1.747059832159733	60014.58750129442
1.752883364933599	82138.56297321022
1.7587263094833776	57554.47550966867
1.7645887305149892	40982.467377580244
1.7704706929500391	31608.06337637973
1.7763722619265396	48544.49607337911
1.7822935027996283	46474.47032362676
1.7882344811422937	34267.10863552238
1.7941952627461015	19770.583864004802
1.8001759136219222	17359.31212439466
1.8061765000006618	13016.731549504027
1.8121970883339975	15507.715749486588
1.818237745295111	27561.783979041833
1.8242985377794283	39214.33385932686
1.8303795329053596	15481.443964201646
1.8364807980150446	5442.600373390558
1.8426024006750947	12992.498617996906
1.8487444086773455	23652.254676721346
1.8549068900396033	21814.14866949783
1.861089913006402	8045.696041749781
1.8672935460497566	4392.575308027768
1.873517857869923	5253.876060390921
1.879762917396156	21461.90505278122
1.8860287937874767	39229.07458829194
1.8923155564334353	51706.0019085916
1.8986232749548801	46224.80733935121
1.9049520192047298	19800.786445662197
1.9113018592687456	17682.961006858255
1.9176728654663082	8594.868127532853
1.9240651083511964	7607.140501793348
1.9304786587123668	3983.129879896069
1.9369135875747419	1484.66340071159
1.9433699661999908	2547.9112458612904
1.9498478660873244	2472.5281325959786
1.9563473589742824	4178.973344626483
1.9628685168375302	12590.560701338985
1.9694114118936552	21596.502759913412
1.9759761165999676	29489.903950230182
1.9825627036553009	37325.18901508783
1.9891712460008188	46730.17107528093
1.9958018168208218	53652.97411204491
2.002454489543558	54228.841372906856
2.0091293378420367	51499.26386919109
2.0158264356348434	43043.87898915329
2.02254585708696	29234.234175119367
2.029287676610583	51261.28864007651
2.036051968865952	69386.57633082524
2.042838808762172	86832.54630006892
2.049648271458046	98333.03572891076
2.0564804323629065	120418.98605286688
2.0633353671374497	163981.9147000486
2.0702131516945745	225406.69148068022
2.0771138622002234	209786.1116248695
2.084037575074224	197973.77305874863
2.0909843669911385	197197.0584435223
2.097954314881109	199693.4108498998
2.1049474959307126	224556.80427942998
2.1119639875838154	237849.25414938232
2.1190038675424283	213148.7380423969
2.12606721376757	200657.28090902918
2.1331541044801288	186705.6663630653
2.140264618161729	156909.6079008992
2.147398833555602	133192.45580114136
2.154556829667454	109533.04139025824
2.1617386857663456	83409.03762540125
2.1689444813855667	75122.83461966453
2.176174296323519	64577.138499947505
2.1834282106445975	52890.845063717315
2.19070630468008	24417.79474337504
2.1980086590290138	4876.583544688249
2.2053353545591103	4750.85996853518
2.2126864724076407	11829.70579688422
2.220062093982333	8689.873273425965
2.2274623009622747	4545.816894399999
2.2348871752988155	3026.0408824761903
2.2423367992164787	2094.0970579173513
2.2498112552138667	1494.8333033724527
2.25731062606458	1267.3144432865297
2.2648349948181288	719.2135507376192
2.272384444800856	956.7108016390183
2.2799590596168593	1849.1352433539496
2.2875589231489153	1624.2543751770154
2.295184119559412	1381.3289519615344
2.302834733291277	3977.232194701864
2.3105108490689146	7468.528812808594
2.3182125518991445	3634.55681547389
2.325939927072142	1191.836639081025
2.3336930601623824	1227.5148420902688
2.341472037029591	473.37764768193296
2.3492769438196897	791.1137501342149
2.3571078669657557	3632.444361158867
2.364964893188975	5273.647808689077
