#wavelength (micron)	surface_flux (erg / (cm2 micron s))
0.40133895199999997	0.0007721825089977946
0.40267674850666674	0.0011592722428020966
0.40401900433502225	0.001130789622358228
0.4053657343494724	0.00130759311519445
0.4067169534639707	0.001895488514125559
0.40807267664218394	0.003777541600720065
0.4094329188976579	0.007012470205240018
0.41079769529398347	0.011388471617165453
0.41216702094496344	0.016418154829987274
0.41354091101477997	0.021837360748137736
0.4149193807181627	0.027348681770231073
0.41630244532055655	0.03292693864027849
0.41769012013829176	0.039038199098131526
0.41908242053875283	0.047340485607539284
0.4204793619405487	0.05789384266179763
0.42188095981368384	0.0643200536960542
0.42328722967972954	0.07036159908046859
0.4246981871119953	0.07942692329516245
0.42611384773570193	0.0899729612329107
0.4275342272281543	0.1015625918843587
0.4289593413189149	0.1140541043068032
0.43038920578997797	0.12761879217870173
0.4318238364759446	0.1425457458373113
0.43326324926419774	0.15888152678009299
0.4347074600950785	0.17671022876104844
0.4361564849620621	0.1960722407082366
0.43761033991193565	0.2170468877559382
0.4390690410449755	0.2395884983291917
0.44053260451512544	0.26408017567089315
0.4420010465301759	0.2893701432338967
0.44347438335194317	0.31880950016603693
0.4449526312964497	0.35366866198253866
0.44643580673410455	0.3907147340677191
0.44792392608988496	0.4322875467754649
0.4494170058435179	0.47843348435380156
0.450915062529663	0.529023043838202
0.4524181127380953	0.5842084856147922
0.45392617311388894	0.64466487097447
0.45543926035760196	0.7113504222691789
0.45695739122546064	0.7829505417469916
0.4584805825295456	0.8612608392401223
0.46000885113797746	0.9470316137634056
0.46154221397510403	1.0402874777207691
0.4630806880216877	1.1417887402029976
0.4646242903150934	1.2519305003499215
0.4661730379494771	1.369671343442677
0.4677269480759754	1.4979858701959656
0.4692860379028953	1.6370876562309125
0.47085032469590504	1.7917776600591535
0.4724198257782247	1.9613280242935176
0.47399455853081884	2.1438795428116473
0.4755745403925883	2.3432741930258065
0.4771597888605636	2.558112074633244
0.47875032149009894	2.7897946930971633
0.4803461558950659	3.0348411729898848
0.48194730974804956	3.2884744449581746
0.48355380078054305	3.536950904170991
0.4851656467831449	3.777541459888067
0.48678286560575545	4.036792454314047
0.4884054751577746	4.299510531357546
0.4900334934083006	4.558628743080326
0.4916669383863283	4.804938528165552
0.4933058281809494	5.026909057501822
0.4949501809415526	5.213121615385464
0.4966000148780246	5.315900002108758
0.4982553482609513	5.247352182112949
0.4999161994218212	5.023537793276078
0.5015825867532273	4.6051574103922235
0.5032545287090715	4.092899254097771
0.5049320438047684	3.9475179988297686
0.506615150617451	4.036343922742138
0.5083038677861758	4.064688138633248
0.5099982140121297	4.15187092655611
0.5116982080588369	4.253561148315804
0.5134038687523664	4.381600203937559
0.515115214981541	4.550112465866539
0.5168322656981462	4.745531196357087
0.5185550399171401	4.932845468615137
0.5202835567168639	5.091818943961972
0.5220178352392535	5.201706336548673
0.5237578946900511	5.25852557349299
0.525503754339018	5.348335510410919
0.527255433520148	5.43428348607233
0.5290129516318819	5.49151626543645
0.5307763281373216	5.539199207094483
0.532545582564446	5.606678137447858
0.5343207345063276	5.673572401295456
0.5361018036213486	5.690945580442394
0.5378888096334199	5.663283868701034
0.5396817723321979	5.557504560472922
0.5414807115733054	5.487800286216201
0.5432856472785497	5.627175323305951
0.545096599436145	5.7423648067214135
0.5469135881009322	5.820508178059574
0.5487366333946019	5.993505792746003
0.5505657555059172	6.166481355269242
0.5524009746909371	6.358362269177054
0.5542423112732402	6.540212417585252
0.556089785644151	6.691535066995942
0.557943418262965	6.802688213603561
0.5598032296571749	6.861795935693702
0.5616692404226988	6.880292255152029
0.5635414712241079	6.8804549137937965
0.5654199427948549	6.785058830042374
0.5673046759375044	6.35729843384268
0.569195691523963	5.992070748211155
0.5710930104957095	6.148900450046368
0.5729966538640286	6.06952705439422
0.5749066427102419	5.88158038980332
0.576822998185943	5.681164278735826
0.5787457415132294	5.443248093799719
0.5806748939849402	5.1055376146867175
0.58261047696489	4.679584229356084
0.5845525118881064	4.111258151782849
0.5865010202610669	2.9280068371050203
0.588456023661937	1.1831914202307006
0.5904175437408102	1.0791617982554778
0.5923856022199464	3.0966963012143442
0.5943602208940129	4.903791464369612
0.5963414216303263	6.513033282851326
0.598329226369094	8.635512593330843
0.6003236571236578	11.54850578856464
0.6023247359807368	15.506794359550728
0.6043324851006725	20.47978347233255
0.6063469267176749	26.559190976926775
0.6083680831400672	33.848854578581644
0.610395976750534	42.39611724029442
0.6124306300063692	52.24195021830642
0.6144720654397238	63.35088034133723
0.6165203056578563	75.73011311912705
0.6185753733433824	89.65881022016283
0.6206372912545272	105.1225796497653
0.6227060822253756	121.53861291151269
0.6247817691661269	136.38951379245398
0.6268643750633474	151.76024637501595
0.6289539229802253	179.78375394584225
0.6310504360568261	212.48855319775038
0.6331539375103489	243.4090898363967
0.6352644506353834	283.2565459915602
0.6373819988041681	324.11762172648355
0.6395066054668487	368.798456916119
0.6416382941517382	418.0364018972846
0.6437770884655775	448.3977512401386
0.6459230120937961	443.6986369929482
0.6480760888007754	484.0582991204335
0.6502363424301114	589.9284226409163
0.6524037969048785	671.9542195021028
0.6545784762278948	769.3895929784853
0.6567604044819878	851.5592030174716
0.6589496058302612	985.5155961902666
0.6611461045163621	1164.0658162704335
0.66334992486475	1350.6275518666534
0.6655610912809659	1545.5074481683528
0.6677796282519025	1737.601129460955
0.6700055603460756	1948.2412530888653
0.6722389122138959	2156.4746096215977
0.6744797085879423	2362.6416887988016
0.6767279742832354	2575.7930336693557
0.6789837341975129	2722.464141428244
0.6812470133115047	2777.2349908459296
0.6835178366892097	2730.4449508166517
0.6857962294781739	2578.2144463072577
0.6880822169097679	2284.932347669286
0.6903758242994671	1732.530221073897
0.6926770770471321	1069.655796455766
0.6949860006372892	944.5891884834292
0.6973026206394136	1101.9282853202976
0.6996269627082117	1029.5073946053205
0.7019590525839058	909.9649173990572
0.7042989160925188	906.8619256901352
0.7066465791461606	947.0154342643132
0.7090020677433145	971.1906509029378
0.7113654079691256	947.9486802512755
0.7137366259956894	784.2261727125684
0.7161157480823418	376.69388175715557
0.7185028005759496	135.71672635592665
0.7208978099112028	252.44736311482205
0.7233008026109069	302.7323759736475
0.7257118052862767	223.68878298936096
0.728130844637231	233.93703955347692
0.7305579474526884	230.0883185053649
0.7329931406108642	301.6254214160778
0.7354364510795671	402.337415601792
0.7378879059164991	504.8835466833701
0.7403475322695541	631.8709789938831
0.7428153573771193	779.2103735356396
0.7452914085683765	925.687160214277
0.7477757132636044	1056.2856916476396
0.7502682989744831	1164.765901785444
0.7527691933043982	1247.0946077318717
0.7552784239487462	1290.3510707881833
0.7577960186952422	1302.1349048373224
0.7603220054242263	1283.2307257275704
0.7628564121089738	1119.0486701211237
0.7653992668160038	779.3518812082489
0.7679505977053904	661.2442185202237
0.7705104330310751	792.9584630320699
0.7730788011411788	1078.692597660826
0.7756557304783162	1387.3269487508232
0.7782412495799106	1669.7385374018463
0.7808353870785104	1885.049529850373
0.7834381717021055	1975.016791968689
0.7860496322744459	2012.973209922121
0.7886697977153608	2147.7470321394567
0.7912986970410787	2521.872918835673
0.793936359364549	2915.500823322928
0.7965828138957642	2981.4413272911047
0.7992380899420836	3188.966684727242
0.8019022169085571	3601.8689862855854
0.8045752242982523	3879.833829392109
0.80725714171258	3536.166993110941
0.809947998851622	2308.560517527478
0.8126478255144608	1118.4244628214028
0.8153566515995091	683.6981929601234
0.8180745071048409	1316.926722795887
0.8208014221285237	2044.0382471255357
0.8235374268689521	1914.6585924790995
0.8262825516251822	2953.10347781234
0.8290368267972661	3009.878911633919
0.8318002828865904	2813.5876195908327
0.8345729504962124	3085.4785202749736
0.8373548603311998	3984.0001003431403
0.8401460431989706	5749.869521795323
0.8429465300096338	8029.648667978348
0.8457563517763327	10621.369141324636
0.8485755396155872	13096.503437027788
0.8514041247476393	15468.27461280868
0.8542421384967981	18033.34599517465
0.8570896122917875	20867.651784230624
0.8599465776660935	23491.419260875668
0.8628130662583139	25366.324721229998
0.8656891098125085	26071.62077067801
0.8685747401785502	25065.77357852976
0.8714699893124788	23603.73359192789
0.8743748892768537	22530.139617493027
0.8772894722411099	20722.661242066857
0.8802137704819137	17243.24225874006
0.8831478163835201	12868.863020250003
0.8860916424381319	6600.361280349712
0.8890452812462591	1579.073199054043
0.89200876551708	168.48954646721975
0.8949821280688037	49.790700804188745
0.8979654018290332	38.16587489978774
0.90095861983513	108.53245379576241
0.9039618152345804	467.5064040862189
0.9069750212853626	602.0355319282949
0.9099982713563137	530.154210987589
0.9130315989275016	647.3015579091002
0.9160750375905932	736.3690130297962
0.9191286210492287	1139.9104987059452
0.9221923831193928	1408.2134135805297
0.9252663577297908	660.3854109305516
0.9283505789222235	84.88949290838433
0.9314450808519644	1.0265576937888967
0.9345498977881376	0.05144979009851149
0.9376650641140981	3.3890832323898765
0.940790614327812	9.19792234349774
0.9439265830422381	3.57358999437872
0.9470730049857122	0.4816562638672556
0.9502299150023314	1.0150546969814274
0.9533973480523392	1.5018861099948217
0.9565753392125138	1.829020323339964
0.9597639236765556	3.888943914813565
0.9629631367554774	11.931689525330881
0.9661730138779958	60.79381037077115
0.9693935905909224	222.84603457837477
0.972624902559559	374.47274439023363
0.9758669855680909	410.5210756375314
0.9791198755199847	581.9366995927375
0.9823836084383848	864.6967899838305
0.9856582204665127	1347.378219540935
0.9889437478680678	2049.670261945625
0.9922402270276282	2649.9138604549844
0.9955476944510537	2817.795604032434
0.9988661867658906	2557.7724062982375
1.002195740721777	1035.9044159984865
1.0055363931908496	373.57334861818964
1.0088881811681525	240.84458079161053
1.0122511417720463	188.87197572445947
1.01562531224462	108.27431888913614
1.019010729952102	50.438263083040404
1.0224074323852759	27.68988659052853
1.0258154571598936	27.096913013591337
1.0292348420170931	33.09233121257243
1.0326656248238169	23.256268982305038
1.0361078435732296	17.870821357777793
1.0395615363851405	26.79305396281271
1.0430267415064245	34.23485072090634
1.0465034973114462	37.05832609506
1.0499918423024843	38.08949397529105
1.0534918151101593	39.77419104485437
1.05700345449386	38.57342288688206
1.0605267993421728	33.60184346794756
1.0640618886733135	27.204717792277467
1.067608761635558	20.769363073239887
1.0711674575076766	15.38030894359173
1.0747380156993689	11.624043918321306
1.0783204757517002	9.11288927629983
1.0819148773375393	7.26053250669964
1.085521260261998	5.872265885404504
1.0891396644628712	4.768122855305292
1.092770130011081	3.7074634901953387
1.0964126971111179	2.6968265186928115
1.1000674061014886	1.8456593715326532
1.10373429745516	1.1156323856675618
1.1074134117800107	0.5308779408608434
1.1111047898192774	0.17748255416062242
1.1148084724520084	0.04551206760164612
1.1185245006935154	0.008635363791727938
1.1222529156958272	0.0033560035814508018
1.1259937587481466	0.003578006639258695
1.1297470712773072	0.012142814766069071
1.1335128948482316	0.014173872917207772
1.1372912711643925	0.026509295757200606
1.1410822420682738	0.05462767766507181
1.1448858495418348	0.03237069067985884
1.1487021357069744	0.012707709766256771
1.1525311428259977	0.012125946395059279
1.1563729133020846	0.0075987294594230875
1.1602274896797582	0.0055076308913569365
1.1640949146453576	0.01920248606982327
1.1679752310275089	0.06603881938637803
1.1718684817976006	0.04885205300893579
1.1757747100702594	0.06934963418871531
1.1796939591038271	0.15531053293746475
1.1836262723008397	0.17819785560547155
1.1875716932085094	0.23477101011112272
1.1915302655192046	0.34025767584901684
1.1955020330709352	0.40266840208069493
1.1994870398478386	0.4274859539976576
1.2034853299806647	0.4848530471779285
1.207496947747267	0.5499060066048636
1.2115219375730912	0.6650212213983865
1.2155603440316685	0.8895538486883019
1.2196122118451074	1.2219639009891892
1.2236775858845912	1.8242139641746191
1.2277565111708733	2.9007342131636427
1.2318490328747762	3.778577144544511
1.2359551963176922	5.170709423184467
1.2400750469720847	8.158744565589027
1.2442086304619917	13.355750928140285
1.248355992563532	19.820327235187563
1.2525171792054102	24.94669704893836
1.2566922364694284	33.95445662388793
1.2608812105909932	52.90379880900399
1.2650841479596302	82.5610574613024
1.2693010951194956	111.20141352828642
1.273532098769894	118.29285555829581
1.2777772057657937	114.73350461553628
1.2820364631183463	100.47178408439815
1.2863099179954076	73.04571690348469
1.2905976177220593	51.98521321204165
1.2948996097811327	45.48689364090945
1.2992159418137368	43.34956720606847
1.3035466616197826	36.31152207957367
1.3078918171585154	33.78794436043081
1.3122514565490437	28.266105022271216
1.3166256280708741	19.176523142499143
1.3210143801644436	17.259793569952503
1.3254177614316587	19.281973384973654
1.329835820636431	10.292846139790372
1.3342686067052192	2.979268626877938
1.33871616872757	1.2839835229468877
1.343178555956662	0.1761640670515137
1.347655817809851	0.010412103218957802
1.352148003869217	0.0007560901028505221
1.3566551638821147	4.0576781483651336e-05
1.3611773477617217	5.440888510143066e-06
1.3657146055875944	5.739045432818382e-06
1.3702669876062197	1.4218056627807932e-05
1.3748345442315741	5.210068657160819e-05
1.3794173260456792	4.8893882836420255e-05
1.384015383799165	1.7901842127736028e-05
1.388628768411829	9.41663758117589e-05
1.3932575309732018	0.00013655815629671776
1.3979017227431125	0.00021436547146374781
1.4025613951522564	0.0004986198479238483
1.407236599802764	0.0005695979801375608
1.4119273884687735	0.0015561926877844094
1.4166338130970026	0.002913573622138894
1.4213559258073263	0.006086858601758678
1.4260937788933508	0.01076031431127829
1.4308474248229952	0.019213606384553078
1.4356169162390722	0.04322127749852503
1.4404023059598692	0.05429098643211255
1.4452036469797356	0.16841534841912437
1.450020992469668	0.8443698543320426
1.4548543957779003	2.6117768555289698
1.4597039104304934	3.526980693448551
1.4645695901319284	1.5332557577493737
1.469451488765702	0.3472376524886341
1.4743496603949209	0.1101926350124033
1.479264159262904	0.07466150220827464
1.4841950397937806	0.04403947044444369
1.4891423565930935	0.024556938697505398
1.4941061644484037	0.014300217596679645
1.4990865183298985	0.022849188247649595
1.5040834733909982	0.07236409685154029
1.5090970849689684	0.0704017519192571
1.5141274085855316	0.01526018944199945
1.5191744999474837	0.056573988309483285
1.5242384149473087	0.18934397687227345
1.5293192096638	0.548438527720447
1.5344169403626793	0.7990341108018821
1.5395316634972218	1.566633724569984
1.544663435708879	4.722577551901172
1.5498123138279087	14.9443065422945
1.554978354874002	45.42367350661804
1.5601616160569156	110.9822199402611
1.5653621547771055	226.3161313507814
1.5705800286263625	378.16530017573865
1.5758152953884506	495.97210406153766
1.5810680130397454	580.1136765284431
1.5863382397498782	643.0363865612117
1.5916260338823778	688.7416557302529
1.5969314539953192	693.7127938752602
1.6022545588419705	602.907202915398
1.6075954073714436	441.05455748918985
1.6129540587293487	260.95516484202363
1.6183305722584467	114.36243035214089
1.6237250074993084	33.368528871209364
1.6291374241909726	7.28410274155658
1.6345678822716092	1.7153926941206235
1.6400164418791816	0.6041188110438274
1.6454831633521123	0.4190620576890178
1.6509681072299527	0.4367722056836291
1.6564713342540527	2.1623105448654276
1.6619929053682332	4.005467777811281
1.6675328817194608	1.570789365443685
1.6730913246585257	1.7365753605898409
1.6786682957407209	2.7248820849843107
1.6842638567265233	2.4668259172392877
1.6898780695822784	1.3099322469301318
1.6955109964808863	0.6973265865239718
1.7011626998024894	0.3825226618203227
1.7068332421351646	0.849272538318748
1.7125226862756153	1.6249541840068078
1.7182310952298672	2.7150990906417896
1.7239585322139668	1.6954531441729264
1.7297050606546804	0.6716042299424395
1.7354707441901962	1.1500829516794369
1.7412556466708302	2.621906567097912
1.747059832159733	4.869297442362043
1.752883364933599	6.7537623598617955
1.7587263094833776	6.337163635845536
1.7645887305149892	4.321150311939784
1.7704706929500391	2.688353137463401
1.7763722619265396	2.0983011919728027
1.7822935027996283	1.7533727038058349
1.7882344811422937	0.7610699354609474
1.7941952627461015	0.3249735854196725
1.8001759136219222	0.2822074661735667
1.8061765000006618	0.13994897475292822
1.8121970883339975	0.085036184925786
1.818237745295111	0.04073740417448768
1.8242985377794283	0.042027215299860254
1.8303795329053596	0.018707863547565592
1.8364807980150446	0.006485278998025972
1.8426024006750947	0.010687060589232546
1.8487444086773455	0.014331842823010421
1.8549068900396033	0.012064160842054339
1.861089913006402	0.017754086199396047
1.8672935460497566	0.01596030629529318
1.873517857869923	0.007743659651116423
1.879762917396156	0.026197952631819708
1.8860287937874767	0.04045148045365814
1.8923155564334353	0.04573551988852439
1.8986232749548801	0.0349098660231968
1.9049520192047298	0.015310816610130073
1.9113018592687456	0.01826022687741827
1.9176728654663082	0.018029120182224207
1.9240651083511964	0.021792652567465598
1.9304786587123668	0.013777697833278396
1.9369135875747419	0.006277317174650092
1.9433699661999908	0.0031687532282597478
1.9498478660873244	0.0016005350784387598
1.9563473589742824	0.004442882378325484
1.9628685168375302	0.009463528925056051
1.9694114118936552	0.011483763142071042
1.9759761165999676	0.010758709102345708
1.9825627036553009	0.011374587691689827
1.9891712460008188	0.017326999880769595
1.9958018168208218	0.01889729723337552
2.002454489543558	0.018869538525735974
2.0091293378420367	0.018463551393855113
2.0158264356348434	0.02062411120713915
2.02254585708696	0.0268675207719911
2.029287676610583	0.0436451926412222
2.036051968865952	0.0491159455090016
2.042838808762172	0.046443998624720206
2.049648271458046	0.0436550432954387
2.0564804323629065	0.03890376036574279
2.0633353671374497	0.03260693950148417
2.0702131516945745	0.026127992307678437
2.0771138622002234	0.02001263382448754
2.084037575074224	0.015136688778788616
2.0909843669911385	0.011602048883002394
2.097954314881109	0.009267092467368324
2.1049474959307126	0.00803640323676168
2.1119639875838154	0.007887625151041334
2.1190038675424283	0.008883715771870575
2.12606721376757	0.0111378065980923
2.1331541044801288	0.014673510424647759
2.140264618161729	0.019618339523896088
2.147398833555602	0.024428549010645687
2.154556829667454	0.026271421425001436
2.1617386857663456	0.02602036037070779
2.1689444813855667	0.024641808941506298
2.176174296323519	0.024487575598815606
2.1834282106445975	0.0243282776312308
2.19070630468008	0.01868390693345073
2.1980086590290138	0.007010980955876287
2.2053353545591103	0.0017256428598114674
2.2126864724076407	0.001958169546859435
2.220062093982333	0.0008934849804610659
2.2274623009622747	0.0006426547823612048
2.2348871752988155	0.0006507886566852375
2.2423367992164787	0.0006523575148396264
2.2498112552138667	0.00039537765524828584
2.25731062606458	0.00021149998024358932
2.2648349948181288	4.3375918747110925e-05
2.272384444800856	5.412605557682633e-05
2.2799590596168593	0.00012743875729331666
2.2875589231489153	8.550842559476612e-05
