#wavelength (micron)	surface_flux (erg / (cm2 micron s))
0.40133895199999997	0.00944434894104793
0.40267674850666674	0.009114768027715048
0.40401900433502225	0.0019269126719838859
0.4053657343494724	0.00213427179089931
0.4067169534639707	0.01459464935834652
0.40807267664218394	0.061213291477800844
0.4094329188976579	0.1814922370222668
0.41079769529398347	0.42359907122936125
0.41216702094496344	0.8418418472605169
0.41354091101477997	1.4952286160223842
0.4149193807181627	2.4256271015718105
0.41630244532055655	3.610236868887779
0.41769012013829176	4.618815884688966
0.41908242053875283	3.6987305648264046
0.4204793619405487	1.580493188151465
0.42188095981368384	3.9331754157381225
0.42328722967972954	12.511627244855266
0.4246981871119953	21.427382053887243
0.42611384773570193	29.247610813209896
0.4275342272281543	37.650047821135374
0.4289593413189149	47.12862507153646
0.43038920578997797	57.957688669436465
0.4318238364759446	70.35377666168411
0.43326324926419774	84.51621689659594
0.4347074600950785	100.63782259517849
0.4361564849620621	118.90878848689663
0.43761033991193565	139.46046891757453
0.4390690410449755	162.36202664716538
0.44053260451512544	188.2974592061315
0.4420010465301759	217.09536320208997
0.44347438335194317	249.64761668455492
0.4449526312964497	286.87063790836885
0.44643580673410455	327.8399549539318
0.44792392608988496	372.80171839857485
0.4494170058435179	422.89497411646545
0.450915062529663	478.316696822305
0.4524181127380953	534.6302491211163
0.45392617311388894	546.6580877609493
0.45543926035760196	455.1220749911745
0.45695739122546064	369.671773991865
0.4584805825295456	191.34457989584507
0.46000885113797746	128.73795685488972
0.46154221397510403	113.51984994992213
0.4630806880216877	96.04412425422687
0.4646242903150934	79.76400159080116
0.4661730379494771	66.44054596939638
0.4677269480759754	55.38009339727166
0.4692860379028953	45.33943029652156
0.47085032469590504	36.51908309252023
0.4724198257782247	29.138455183303613
0.47399455853081884	23.196537019892045
0.4755745403925883	18.62759887046041
0.4771597888605636	15.215269086213251
0.47875032149009894	12.753293991883337
0.4803461558950659	10.577568330889903
0.48194730974804956	8.529531270998548
0.48355380078054305	6.762715025837519
0.4851656467831449	5.367043471027126
0.48678286560575545	4.405423436417743
0.4884054751577746	3.7299067999761397
0.4900334934083006	3.215937613847606
0.4916669383863283	2.8096815226042637
0.4933058281809494	2.4578347569977255
0.4949501809415526	2.1512221919677628
0.4966000148780246	1.8740533679978233
0.4982553482609513	1.5911473498203683
0.4999161994218212	1.3321147743834956
0.5015825867532273	1.1093718373514991
0.5032545287090715	0.9391003080331168
0.5049320438047684	0.8763805416669473
0.506615150617451	0.9024150097154907
0.5083038677861758	0.9214606176176308
0.5099982140121297	0.9477343101697928
0.5116982080588369	0.9794698480325352
0.5134038687523664	1.0105048475668137
0.515115214981541	1.0476167660484057
0.5168322656981462	1.0832949942672054
0.5185550399171401	1.1284271680235543
0.5202835567168639	1.1705943903020244
0.5220178352392535	1.2091855247749397
0.5237578946900511	1.2452011577846014
0.525503754339018	1.2850886861580475
0.527255433520148	1.326024965176574
0.5290129516318819	1.3676398637217662
0.5307763281373216	1.4127501851997406
0.532545582564446	1.4625817655081557
0.5343207345063276	1.5135451220791447
0.5361018036213486	1.562775256832144
0.5378888096334199	1.6136417175482773
0.5396817723321979	1.6592088259262112
0.5414807115733054	1.7060889380161703
0.5432856472785497	1.774454332917937
0.545096599436145	1.8296640014407162
0.5469135881009322	1.8754041916212432
0.5487366333946019	1.9597423055256846
0.5505657555059172	2.0410653913497208
0.5524009746909371	2.118227166896144
0.5542423112732402	2.1913479893715064
0.556089785644151	2.2647461861767266
0.557943418262965	2.336688191580869
0.5598032296571749	2.4032469273207
0.5616692404226988	2.462192334368868
0.5635414712241079	2.5181578620971794
0.5654199427948549	2.5591856527173293
0.5673046759375044	2.535852009423358
0.569195691523963	2.509857852969636
0.5710930104957095	2.5493715874870504
0.5729966538640286	2.555140735189836
0.5749066427102419	2.5024572834062124
0.576822998185943	2.406491204220151
0.5787457415132294	2.3080722019160036
0.5806748939849402	2.155276015775193
0.58261047696489	1.952984606869949
0.5845525118881064	1.6751480648429393
0.5865010202610669	1.115488566229214
0.588456023661937	0.39392258781434536
0.5904175437408102	0.363476348330251
0.5923856022199464	1.2758493460103835
0.5943602208940129	2.4189705168238893
0.5963414216303263	3.506793629288633
0.598329226369094	4.6753145911152725
0.6003236571236578	6.103739323144517
0.6023247359807368	7.81346845984984
0.6043324851006725	9.83560113347709
0.6063469267176749	12.151800889989213
0.6083680831400672	14.669060227665113
0.610395976750534	17.535407419743567
0.6124306300063692	20.731156516371428
0.6144720654397238	24.40047867727909
0.6165203056578563	28.478815614298547
0.6185753733433824	33.12335299746277
0.6206372912545272	38.32893364112636
0.6227060822253756	44.08038954154897
0.6247817691661269	50.15351699007837
0.6268643750633474	56.108485685948345
0.6289539229802253	64.11298510886168
0.6310504360568261	73.75660690945448
0.6331539375103489	83.21657672388575
0.6352644506353834	96.0848362569999
0.6373819988041681	107.82831138451903
0.6395066054668487	119.63465059310799
0.6416382941517382	135.286745671631
0.6437770884655775	148.0551586206997
0.6459230120937961	149.36124540680584
0.6480760888007754	165.82982247420102
0.6502363424301114	201.56047033542538
0.6524037969048785	230.37965152226866
0.6545784762278948	261.11830920346375
0.6567604044819878	289.5898135485698
0.6589496058302612	332.84250396217755
0.6611461045163621	381.3131502519388
0.66334992486475	443.95973539581865
0.6655610912809659	507.7263769983367
0.6677796282519025	584.7280279218206
0.6700055603460756	636.6807649328522
0.6722389122138959	719.0193222122612
0.6744797085879423	841.7050651441847
0.6767279742832354	924.5521108907162
0.6789837341975129	987.2521937665077
0.6812470133115047	1027.572022495385
0.6835178366892097	1038.2550279681589
0.6857962294781739	1003.5358098081776
0.6880822169097679	928.2242590948916
0.6903758242994671	796.845737095998
0.6926770770471321	612.5879262731135
0.6949860006372892	594.5186003088736
0.6973026206394136	672.8761660943161
0.6996269627082117	661.6410605311562
0.7019590525839058	604.589188363633
0.7042989160925188	631.6582098268738
0.7066465791461606	682.6054755581087
0.7090020677433145	714.393617720424
0.7113654079691256	732.2790716617909
0.7137366259956894	722.4056491918528
0.7161157480823418	545.4505644488916
0.7185028005759496	409.9545167586729
0.7208978099112028	469.9373578352827
0.7233008026109069	536.5555546284603
0.7257118052862767	510.48077115232473
0.728130844637231	550.0735997247895
0.7305579474526884	526.0387892798008
0.7329931406108642	537.7745456221452
0.7354364510795671	559.4991972312126
0.7378879059164991	667.3616316630433
0.7403475322695541	810.2334534329493
0.7428153573771193	928.4056370203093
0.7452914085683765	994.9381580031355
0.7477757132636044	1094.0596052770331
0.7502682989744831	1143.13164465236
0.7527691933043982	1180.5911911270643
0.7552784239487462	1230.9038356835883
0.7577960186952422	1265.346071526291
0.7603220054242263	1260.341156467631
0.7628564121089738	1095.6869427669228
0.7653992668160038	624.1556322279602
0.7679505977053904	397.6914907995298
0.7705104330310751	588.9696655050758
0.7730788011411788	1072.2161008280334
0.7756557304783162	1490.1143041104876
0.7782412495799106	1705.0298580178046
0.7808353870785104	1821.90220391697
0.7834381717021055	2088.401926892031
0.7860496322744459	2146.797923331165
0.7886697977153608	2372.2730757351505
0.7912986970410787	2888.021896875962
0.793936359364549	3020.719926493795
0.7965828138957642	3141.476550720811
0.7992380899420836	3587.0373326695985
0.8019022169085571	4047.944675845209
0.8045752242982523	4438.638908543139
0.80725714171258	4504.651653749002
0.809947998851622	3644.4459060827553
0.8126478255144608	2675.2769054526175
0.8153566515995091	2266.9293972956675
0.8180745071048409	3176.6031969066107
0.8208014221285237	4609.837481066237
0.8235374268689521	4747.856108558719
0.8262825516251822	5883.262983308476
0.8290368267972661	5915.331533483745
0.8318002828865904	5778.402064604596
0.8345729504962124	5678.823619710885
0.8373548603311998	6099.187347718182
0.8401460431989706	8515.287647919122
0.8429465300096338	9382.488424015854
0.8457563517763327	10878.277255250832
0.8485755396155872	12701.508983403446
0.8514041247476393	13870.88434849635
0.8542421384967981	15676.178096283513
0.8570896122917875	17971.891176292025
0.8599465776660935	20074.305626043002
0.8628130662583139	21728.469333422207
0.8656891098125085	23144.149437502234
0.8685747401785502	24051.160963052942
0.8714699893124788	24874.533684724884
0.8743748892768537	26168.53964035306
0.8772894722411099	27432.99358794006
0.8802137704819137	27552.91192024823
0.8831478163835201	26407.597440607184
0.8860916424381319	20879.94820062394
0.8890452812462591	10581.876059457798
0.89200876551708	4311.113713113375
0.8949821280688037	5252.357624749133
0.8979654018290332	5526.651558315674
0.90095861983513	6296.048047906478
0.9039618152345804	12883.414960864086
0.9069750212853626	12567.98360787974
0.9099982713563137	12884.584434036811
0.9130315989275016	18779.207262408592
0.9160750375905932	21833.986158277763
0.9191286210492287	30469.531812764846
0.9221923831193928	45734.74171216248
0.9252663577297908	35266.742165755146
0.9283505789222235	11222.032193462252
0.9314450808519644	1023.2791358988853
0.9345498977881376	904.8389169685892
0.9376650641140981	3823.8815400082804
0.940790614327812	9014.120821753399
0.9439265830422381	8579.264882211743
0.9470730049857122	7546.434266574365
0.9502299150023314	5046.7269681749685
0.9533973480523392	4985.242134934993
0.9565753392125138	5570.840237119401
0.9597639236765556	5406.880512901836
0.9629631367554774	4276.09744892779
0.9661730138779958	14690.290328342584
0.9693935905909224	30316.162481046427
0.972624902559559	35897.314749118894
0.9758669855680909	29860.24880652571
0.9791198755199847	33132.630687237535
0.9823836084383848	33655.57995765563
0.9856582204665127	43142.858802808485
0.9889437478680678	59736.175242197525
0.9922402270276282	63936.226933677906
0.9955476944510537	69368.4685424596
0.9988661867658906	68618.0363519647
1.002195740721777	62373.53208809361
1.0055363931908496	74438.21546401935
1.0088881811681525	81490.48808251705
1.0122511417720463	83037.91080947126
1.01562531224462	58398.27055364341
1.019010729952102	37966.32021204307
1.0224074323852759	39694.440251796
1.0258154571598936	61349.769121274534
1.0292348420170931	74298.67579131504
1.0326656248238169	60382.50241923469
1.0361078435732296	46587.4216420553
1.0395615363851405	72669.40926198884
1.0430267415064245	117280.34138493583
1.0465034973114462	139906.77534843134
1.0499918423024843	140780.70976945868
1.0534918151101593	179938.26993981318
1.05700345449386	232664.90152380223
1.0605267993421728	254195.76693138914
1.0640618886733135	259838.65075535697
1.067608761635558	251243.02020807675
1.0711674575076766	244694.0001028243
1.0747380156993689	225672.2488655214
1.0783204757517002	199222.74639404303
1.0819148773375393	182954.7162819505
1.085521260261998	163275.82444676358
1.0891396644628712	141532.4583308143
1.092770130011081	105483.92271015473
1.0964126971111179	61802.71073598888
1.1000674061014886	41301.241245581914
1.10373429745516	26455.14347316087
1.1074134117800107	8342.553974125085
1.1111047898192774	2528.66617810896
1.1148084724520084	1713.8811680623528
1.1185245006935154	1377.130357064842
1.1222529156958272	1540.963775521282
1.1259937587481466	1480.2521586159241
1.1297470712773072	1587.0108343926208
1.1335128948482316	882.2523864050455
1.1372912711643925	2121.602589566334
1.1410822420682738	4388.2315564386
1.1448858495418348	2800.036256372283
1.1487021357069744	925.2911610423516
1.1525311428259977	456.6849105698041
1.1563729133020846	128.56271815858116
1.1602274896797582	78.21861444366458
1.1640949146453576	586.007587120875
1.1679752310275089	1804.7827748994957
1.1718684817976006	960.4725495337352
1.1757747100702594	495.64616357988996
1.1796939591038271	1797.592778023867
1.1836262723008397	1938.4851299192283
1.1875716932085094	1921.1081993701266
1.1915302655192046	2474.588358214641
1.1955020330709352	4186.258132172613
1.1994870398478386	8227.019708314416
1.2034853299806647	10930.421018612868
1.207496947747267	10371.29873085333
1.2115219375730912	11163.566688034023
1.2155603440316685	14139.553382927288
1.2196122118451074	18876.889279698633
1.2236775858845912	24768.90367474972
1.2277565111708733	44739.36308853466
1.2318490328747762	62176.76517507775
1.2359551963176922	83090.31218232775
1.2400750469720847	124879.57476779091
1.2442086304619917	174702.91828722597
1.248355992563532	212006.62606978833
1.2525171792054102	222023.69972507574
1.2566922364694284	259279.52582593693
1.2608812105909932	339262.37816968176
1.2650841479596302	411241.6601046269
1.2693010951194956	460404.9347499359
1.273532098769894	386425.3243216246
1.2777772057657937	259957.52926103096
1.2820364631183463	178984.36832595553
1.2863099179954076	108597.76534744016
1.2905976177220593	74042.20415606862
1.2948996097811327	66410.68037258775
1.2992159418137368	59375.85238369479
1.3035466616197826	48848.40696513789
1.3078918171585154	37832.90448187419
1.3122514565490437	19833.108104064857
1.3166256280708741	18260.26540419631
1.3210143801644436	21200.29734582863
1.3254177614316587	18192.449370503688
1.329835820636431	9041.371256098342
1.3342686067052192	3416.2119039148506
1.33871616872757	1342.0024864317043
1.343178555956662	259.9826454030771
1.347655817809851	41.56182698031115
1.352148003869217	24.329768127652937
1.3566551638821147	7.4704922536745
1.3611773477617217	1.628698405852202
1.3657146055875944	1.5654059052557465
1.3702669876062197	1.8485886640782536
1.3748345442315741	9.160983621468045
1.3794173260456792	13.919253890235705
1.384015383799165	3.659776339720623
1.388628768411829	7.894972688236448
1.3932575309732018	15.017705290680482
1.3979017227431125	18.304620911036963
1.4025613951522564	40.22949693017119
1.407236599802764	41.26476735300923
1.4119273884687735	61.76730581452967
1.4166338130970026	46.0544846916972
1.4213559258073263	48.75719799055111
1.4260937788933508	85.07074219184446
1.4308474248229952	121.5372202765097
1.4356169162390722	162.64922367631212
1.4404023059598692	530.8174069668877
1.4452036469797356	873.683670666369
1.450020992469668	1079.188564306125
1.4548543957779003	1277.2020570875243
1.4597039104304934	1583.9429300500908
1.4645695901319284	1269.7369882675835
1.469451488765702	508.89182707488425
1.4743496603949209	116.8537831783699
1.479264159262904	110.43282028644798
1.4841950397937806	108.27507003524858
1.4891423565930935	126.53339604602553
1.4941061644484037	214.5647429144995
1.4990865183298985	311.3983913548571
1.5040834733909982	287.4385277292438
1.5090970849689684	344.3384452256902
1.5141274085855316	103.4584200714509
1.5191744999474837	237.00575735025592
1.5242384149473087	665.8985004766914
1.5293192096638	1481.7469017471317
1.5344169403626793	1556.2740668635197
1.5395316634972218	2001.845246204876
1.544663435708879	2844.3886256534847
1.5498123138279087	5195.388762169193
1.554978354874002	9500.922859171138
1.5601616160569156	13432.317764890331
1.5653621547771055	30158.72332265821
1.5705800286263625	61774.13668019179
1.5758152953884506	84671.68639296987
1.5810680130397454	109997.82850787391
1.5863382397498782	132900.14411707007
1.5916260338823778	169859.676031535
1.5969314539953192	161763.6465026678
1.6022545588419705	117855.67473221206
1.6075954073714436	72648.90367545764
1.6129540587293487	36995.92367192722
1.6183305722584467	16013.129784546652
1.6237250074993084	7511.365604805046
1.6291374241909726	4382.521057507185
1.6345678822716092	3163.906946676137
1.6400164418791816	1763.5963425134532
1.6454831633521123	2079.080496731955
1.6509681072299527	2022.652500717266
1.6564713342540527	4182.375065140201
1.6619929053682332	7401.854907561773
1.6675328817194608	3164.0751833328545
1.6730913246585257	871.0522864792
1.6786682957407209	3174.186853224539
1.6842638567265233	4398.3829206205455
1.6898780695822784	2240.42669251438
1.6955109964808863	566.1037922737708
1.7011626998024894	500.91706325548444
1.7068332421351646	1385.9244610633264
1.7125226862756153	2087.213691273136
1.7182310952298672	3220.9601245738886
1.7239585322139668	2935.0772476001916
1.7297050606546804	1041.7492099641688
1.7354707441901962	1237.9938797986251
1.7412556466708302	2093.9283361633484
1.747059832159733	3601.364717160958
1.752883364933599	4752.809022511029
1.7587263094833776	3282.219938168825
1.7645887305149892	2442.513455645629
1.7704706929500391	1795.1483439389858
1.7763722619265396	2406.6416152020215
1.7822935027996283	2252.969312875794
1.7882344811422937	1335.945831623594
1.7941952627461015	726.5495149450346
1.8001759136219222	658.9200867663949
1.8061765000006618	370.5193903152137
1.8121970883339975	346.231799620725
1.818237745295111	622.2403201518838
1.8242985377794283	1052.6291518551786
1.8303795329053596	403.9770831524212
1.8364807980150446	108.66757512026501
1.8426024006750947	346.237461978294
1.8487444086773455	543.9793498246607
1.8549068900396033	411.941084284595
1.861089913006402	163.75275865948998
1.8672935460497566	52.1847652163278
1.873517857869923	50.01112498471046
1.879762917396156	459.01589309040526
1.8860287937874767	956.7681317732284
1.8923155564334353	1111.6827797787073
1.8986232749548801	944.4509806913417
1.9049520192047298	349.34023579867664
1.9113018592687456	249.8320461812414
1.9176728654663082	179.56490201493054
1.9240651083511964	221.49080983209217
1.9304786587123668	80.01499341926113
1.9369135875747419	12.202895027173861
1.9433699661999908	15.192452467101532
1.9498478660873244	27.676950036068973
1.9563473589742824	96.82849453364008
1.9628685168375302	322.79048726928875
1.9694114118936552	530.2812986852763
1.9759761165999676	710.6088360470351
1.9825627036553009	845.4448716731863
1.9891712460008188	1093.2357267417071
1.9958018168208218	1465.213871569807
2.002454489543558	1463.1682348280683
2.0091293378420367	1185.9171166089043
2.0158264356348434	1007.2594487534883
2.02254585708696	956.0171029757827
2.029287676610583	1907.785838078775
2.036051968865952	2158.8139691445094
2.042838808762172	2603.86796616903
2.049648271458046	3295.9371070076722
2.0564804323629065	3994.4646737835756
2.0633353671374497	4747.753806965255
2.0702131516945745	5695.832869341089
2.0771138622002234	5382.381888497413
2.084037575074224	5381.092974076862
2.0909843669911385	5344.977043350262
2.097954314881109	5116.388857796253
2.1049474959307126	5355.730769117108
2.1119639875838154	5677.355074842457
2.1190038675424283	5397.778268449003
2.12606721376757	5220.244050286849
2.1331541044801288	4819.275945252305
2.140264618161729	4274.7420214710055
2.147398833555602	4053.7267834269815
2.154556829667454	3417.3952857884296
2.1617386857663456	2597.413211538048
2.1689444813855667	2337.029486882997
2.176174296323519	2075.882814705655
2.1834282106445975	1816.6692592887262
2.19070630468008	926.5073838530612
2.1980086590290138	190.71469992658837
2.2053353545591103	148.20440797827456
2.2126864724076407	328.92469531445056
2.220062093982333	194.81849597646053
2.2274623009622747	139.41829036519113
2.2348871752988155	106.09602226825821
2.2423367992164787	51.01004610068843
2.2498112552138667	29.836982754240644
2.25731062606458	28.589410326908105
2.2648349948181288	9.714822083099433
2.272384444800856	16.086074270324822
2.2799590596168593	37.951440911137446
2.2875589231489153	26.490037249091706
2.295184119559412	21.514796971628613
2.302834733291277	71.11078792662428
2.3105108490689146	154.48251806648963
2.3182125518991445	82.2496721731186
2.325939927072142	24.169129165660564
2.3336930601623824	21.607141768045143
2.341472037029591	13.31796526009924
2.3492769438196897	14.314878470749065
2.3571078669657557	84.57053511471231
2.364964893188975	148.43204372588517
