#wavelength (micron)	surface_flux (erg / (cm2 micron s))
0.40133895199999997	0.00013951085952330268
0.40267674850666674	0.00016261568368911692
0.40401900433502225	4.9031107204066295e-05
0.4053657343494724	5.528103227584344e-05
0.4067169534639707	0.00027719190174740367
0.40807267664218394	0.0008481644814381667
0.4094329188976579	0.001943305020658218
0.41079769529398347	0.003704853721743593
0.41216702094496344	0.006329339614713702
0.41354091101477997	0.010086360944197514
0.4149193807181627	0.014565062266893867
0.41630244532055655	0.01991256773369773
0.41769012013829176	0.02524678868030696
0.41908242053875283	0.02143027078028637
0.4204793619405487	0.010022533275480812
0.42188095981368384	0.022356126268647854
0.42328722967972954	0.06590308169193727
0.4246981871119953	0.10725615401661755
0.42611384773570193	0.1420643850288712
0.4275342272281543	0.1825272104869943
0.4289593413189149	0.22767579283595787
0.43038920578997797	0.2798153841410588
0.4318238364759446	0.3401163245176002
0.43326324926419774	0.40790815484725274
0.4347074600950785	0.4856179593623677
0.4361564849620621	0.576125274080486
0.43761033991193565	0.6753284662049879
0.4390690410449755	0.7751747042119413
0.44053260451512544	0.9061286841394657
0.4420010465301759	1.038405082538708
0.44347438335194317	1.1624182909460163
0.4449526312964497	1.3640959671808295
0.44643580673410455	1.615272374864269
0.44792392608988496	1.8703559424702323
0.4494170058435179	2.1605224412647206
0.450915062529663	2.504616188051775
0.4524181127380953	2.896737675682015
0.45392617311388894	3.0555784267390584
0.45543926035760196	2.584404860716429
0.45695739122546064	2.3591627951762084
0.4584805825295456	1.5842380805044922
0.46000885113797746	1.2438611208868637
0.46154221397510403	1.1978204043336802
0.4630806880216877	1.0771458186255058
0.4646242903150934	0.9530824732872436
0.4661730379494771	0.8131570678888724
0.4677269480759754	0.6763018285574446
0.4692860379028953	0.5706835948462149
0.47085032469590504	0.4804517384225586
0.4724198257782247	0.39713692034966275
0.47399455853081884	0.32941388861315163
0.4755745403925883	0.2888661903815142
0.4771597888605636	0.2521399136066009
0.47875032149009894	0.22281393554411705
0.4803461558950659	0.19142610312902356
0.48194730974804956	0.1582477274707569
0.48355380078054305	0.12797214815189795
0.4851656467831449	0.1001596551180666
0.48678286560575545	0.08693074167430882
0.4884054751577746	0.08037554228838821
0.4900334934083006	0.07339641414345115
0.4916669383863283	0.06817653004876048
0.4933058281809494	0.0633820802744206
0.4949501809415526	0.05911456409904177
0.4966000148780246	0.05556783813379147
0.4982553482609513	0.05078224807980385
0.4999161994218212	0.0463293329639526
0.5015825867532273	0.04208510426049056
0.5032545287090715	0.037510802535211225
0.5049320438047684	0.036134404526759985
0.506615150617451	0.04213831622994684
0.5083038677861758	0.04574481401201043
0.5099982140121297	0.048108192781734616
0.5116982080588369	0.05049575109186393
0.5134038687523664	0.05416096024364798
0.515115214981541	0.057606793258718
0.5168322656981462	0.06046801244835624
0.5185550399171401	0.06586000527852075
0.5202835567168639	0.07031633783939076
0.5220178352392535	0.07421132380043467
0.5237578946900511	0.078507121746165
0.525503754339018	0.08297009633021181
0.527255433520148	0.08747562699375794
0.5290129516318819	0.09232562169230331
0.5307763281373216	0.09777725321798827
0.532545582564446	0.10354761900141331
0.5343207345063276	0.109424037680328
0.5361018036213486	0.11500376079069595
0.5378888096334199	0.12149700581480752
0.5396817723321979	0.1285585713125743
0.5414807115733054	0.1347532046707941
0.5432856472785497	0.14280770900599746
0.545096599436145	0.14406318938670662
0.5469135881009322	0.14368950504682523
0.5487366333946019	0.16085128276735441
0.5505657555059172	0.17628822828624371
0.5524009746909371	0.1889579455036488
0.5542423112732402	0.1984130542135644
0.556089785644151	0.20982072997530563
0.557943418262965	0.22118010052623766
0.5598032296571749	0.23088130121714767
0.5616692404226988	0.2392620093492933
0.5635414712241079	0.24817169639335024
0.5654199427948549	0.25344724163013865
0.5673046759375044	0.2380990551922379
0.569195691523963	0.21901055925117707
0.5710930104957095	0.2280508724144085
0.5729966538640286	0.24787123135990177
0.5749066427102419	0.24358979364706926
0.576822998185943	0.22678907070243245
0.5787457415132294	0.22474306944241002
0.5806748939849402	0.2109616186709537
0.58261047696489	0.18730147931366534
0.5845525118881064	0.16119574774297366
0.5865010202610669	0.10141902927895893
0.588456023661937	0.03235223109201952
0.5904175437408102	0.027067710014358058
0.5923856022199464	0.09606432888208458
0.5943602208940129	0.2137956584176044
0.5963414216303263	0.33480686132910314
0.598329226369094	0.44905748759043135
0.6003236571236578	0.6215766153681601
0.6023247359807368	0.8441531822905188
0.6043324851006725	1.1119604208553386
0.6063469267176749	1.4254868594190135
0.6083680831400672	1.779253239737053
0.610395976750534	2.171583176485614
0.6124306300063692	2.5847694875416862
0.6144720654397238	3.064871372295909
0.6165203056578563	3.571616743177031
0.6185753733433824	4.152253892643607
0.6206372912545272	4.7913497186452325
0.6227060822253756	5.49621602728797
0.6247817691661269	6.261374741697076
0.6268643750633474	6.883639699612498
0.6289539229802253	4.757000685135929
0.6310504360568261	10.321219578613231
0.6331539375103489	9.968003310972309
0.6352644506353834	11.605754237643426
0.6373819988041681	12.49109129703119
0.6395066054668487	12.720110833768402
0.6416382941517382	15.001042701817225
0.6437770884655775	15.85306791032965
0.6459230120937961	12.81086045248453
0.6480760888007754	13.872650440375638
0.6502363424301114	20.65896776791441
0.6524037969048785	25.36334558769059
0.6545784762278948	27.51888348147638
0.6567604044819878	30.34518370412284
0.6589496058302612	36.32149768923293
0.6611461045163621	40.309152545415195
0.66334992486475	46.49021060604637
0.6655610912809659	52.16272983501023
0.6677796282519025	61.55908848976683
0.6700055603460756	68.82120221947427
0.6722389122138959	78.47810855231953
0.6744797085879423	90.18067286334124
0.6767279742832354	98.70661106268508
0.6789837341975129	106.25314032500903
0.6812470133115047	114.4888572663532
0.6835178366892097	121.36617721447524
0.6857962294781739	122.57192100401146
0.6880822169097679	119.4667963059707
0.6903758242994671	102.5696656597844
0.6926770770471321	67.69388802139758
0.6949860006372892	74.16359655511332
0.6973026206394136	95.9499428745879
0.6996269627082117	87.78917786635958
0.7019590525839058	62.040141850873695
0.7042989160925188	79.25760015649495
0.7066465791461606	93.69131517352142
0.7090020677433145	94.09255539204254
0.7113654079691256	102.17298765615759
0.7137366259956894	102.76476987399963
0.7161157480823418	67.59017134368204
0.7185028005759496	37.670330510729165
0.7208978099112028	42.43910794008366
0.7233008026109069	61.629099848730064
0.7257118052862767	70.76096785480415
0.728130844637231	75.25395124253157
0.7305579474526884	57.405557054043086
0.7329931406108642	62.972081236824955
0.7354364510795671	56.61292331134737
0.7378879059164991	78.8119242834363
0.7403475322695541	134.04275790219077
0.7428153573771193	173.22699672299768
0.7452914085683765	200.27512286241574
0.7477757132636044	228.64294341753478
0.7502682989744831	235.79069988071626
0.7527691933043982	252.05054163720126
0.7552784239487462	269.58968979603145
0.7577960186952422	289.24356613048616
0.7603220054242263	287.38383259514177
0.7628564121089738	235.7495166833102
0.7653992668160038	110.69695674535483
0.7679505977053904	53.280609419686726
0.7705104330310751	94.8288005490529
0.7730788011411788	225.4958687628579
0.7756557304783162	351.60230351844734
0.7782412495799106	409.1655259211474
0.7808353870785104	420.66179746404606
0.7834381717021055	460.21534030374727
0.7860496322744459	445.69377108629755
0.7886697977153608	518.1400714076759
0.7912986970410787	656.9464916399036
0.793936359364549	661.6916893323884
0.7965828138957642	635.2519662060906
0.7992380899420836	681.431639242305
0.8019022169085571	825.8758892187652
0.8045752242982523	914.418539237134
0.80725714171258	870.1284432187806
0.809947998851622	588.5029881917574
0.8126478255144608	314.06161415258026
0.8153566515995091	262.41402938667653
0.8180745071048409	412.8422574585677
0.8208014221285237	670.0306308413084
0.8235374268689521	702.6297462123773
0.8262825516251822	869.9838968464376
0.8290368267972661	836.1965823301623
0.8318002828865904	747.2540503470905
0.8345729504962124	492.85528454313686
0.8373548603311998	480.46709164328115
0.8401460431989706	702.0471140905647
0.8429465300096338	703.9699871865388
0.8457563517763327	814.4771253294264
0.8485755396155872	891.3821467045422
0.8514041247476393	1001.706488143114
0.8542421384967981	1188.9214226675088
0.8570896122917875	1371.7875038230932
0.8599465776660935	1538.0198343814195
0.8628130662583139	1580.9114846753619
0.8656891098125085	1514.4843014084329
0.8685747401785502	1328.76656977131
0.8714699893124788	1144.2770101367187
0.8743748892768537	1074.9111557183398
0.8772894722411099	1001.3701282896217
0.8802137704819137	776.4406385503249
0.8831478163835201	517.0232784184477
0.8860916424381319	243.50198074635634
0.8890452812462591	35.063921525889604
0.89200876551708	2.937695809846976
0.8949821280688037	8.629224457668672
0.8979654018290332	8.008766242816144
0.90095861983513	5.722484366342849
0.9039618152345804	16.37359783261094
0.9069750212853626	23.18796982215453
0.9099982713563137	41.513316274377104
0.9130315989275016	69.19042280690206
0.9160750375905932	76.43706865189446
0.9191286210492287	335.3414372091436
0.9221923831193928	906.8374025276696
0.9252663577297908	778.264180387173
0.9283505789222235	183.99493441960533
0.9314450808519644	8.755463128567515
0.9345498977881376	5.304094186699037
0.9376650641140981	19.78615848959612
0.940790614327812	46.1453735160141
0.9439265830422381	79.3394479186144
0.9470730049857122	98.70365382964141
0.9502299150023314	52.75288144461991
0.9533973480523392	51.777331229645974
0.9565753392125138	70.37997126637863
0.9597639236765556	54.25544341471012
0.9629631367554774	33.71036623747806
0.9661730138779958	197.68654236825583
0.9693935905909224	341.83379037988755
0.972624902559559	281.09592692645737
0.9758669855680909	195.5999480915883
0.9791198755199847	128.58041490751046
0.9823836084383848	83.84306805339045
0.9856582204665127	123.88855921928165
0.9889437478680678	150.0418489666942
0.9922402270276282	133.9278847983085
0.9955476944510537	102.12660007076565
0.9988661867658906	94.71603861197985
1.002195740721777	76.75034790283125
1.0055363931908496	55.42745223226415
1.0088881811681525	50.52780821454637
1.0122511417720463	74.8451636285047
1.01562531224462	42.141152974868604
1.019010729952102	14.077019842787607
1.0224074323852759	17.917426659369337
1.0258154571598936	33.181706200680196
1.0292348420170931	43.67942045738901
1.0326656248238169	43.37785841636996
1.0361078435732296	34.839355836134104
1.0395615363851405	131.76537518790607
1.0430267415064245	431.43949730105
1.0465034973114462	560.3598192781803
1.0499918423024843	352.47045477682565
1.0534918151101593	1353.729843074076
1.05700345449386	3349.475578330262
1.0605267993421728	4879.392004914848
1.0640618886733135	6437.487607236707
1.067608761635558	7066.533348928366
1.0711674575076766	7480.598109847776
1.0747380156993689	6297.494744711916
1.0783204757517002	4662.720930834427
1.0819148773375393	4057.3977379037883
1.085521260261998	3105.216679261527
1.0891396644628712	2578.459172069816
1.092770130011081	1571.4913507524577
1.0964126971111179	566.7203618555056
1.1000674061014886	541.4705812304151
1.10373429745516	557.7167764195484
1.1074134117800107	163.34322690897235
1.1111047898192774	38.93782230100733
1.1148084724520084	17.915321220143618
1.1185245006935154	3.1568498701387844
1.1222529156958272	1.9868716423372277
1.1259937587481466	3.349885952028637
1.1297470712773072	4.242724045177917
1.1335128948482316	1.6588018904909994
1.1372912711643925	3.5238776310214828
1.1410822420682738	12.005139631570557
1.1448858495418348	10.885998314832058
1.1487021357069744	2.882333754108762
1.1525311428259977	0.42303499440967457
1.1563729133020846	0.04145074520690378
1.1602274896797582	0.023994395058129076
1.1640949146453576	1.0497425774406504
1.1679752310275089	3.5506345704875137
1.1718684817976006	1.3957266731305669
1.1757747100702594	0.11821359601738704
1.1796939591038271	0.4939395495393097
1.1836262723008397	0.5808786689115737
1.1875716932085094	0.26157887023069176
1.1915302655192046	0.28405239478022987
1.1955020330709352	1.465366915317881
1.1994870398478386	5.497359913512566
1.2034853299806647	5.745608611191344
1.207496947747267	5.51131014494323
1.2115219375730912	12.115000446200884
1.2155603440316685	11.45415228120646
1.2196122118451074	11.469930773689036
1.2236775858845912	15.931078690865133
1.2277565111708733	108.69607813705541
1.2318490328747762	226.9342381827449
1.2359551963176922	225.37311294204204
1.2400750469720847	773.4971355892604
1.2442086304619917	1602.704268629795
1.248355992563532	1911.2827024564426
1.2525171792054102	1900.260813126876
1.2566922364694284	2484.960599579395
1.2608812105909932	4819.776576677648
1.2650841479596302	7152.29306270874
1.2693010951194956	10056.295861270892
1.273532098769894	7721.936465033428
1.2777772057657937	2348.971202485087
1.2820364631183463	912.210416323855
1.2863099179954076	495.7916935182838
1.2905976177220593	389.06917307457667
1.2948996097811327	380.51562999608143
1.2992159418137368	309.5826686029874
1.3035466616197826	188.38331378035141
1.3078918171585154	110.1946058516126
1.3122514565490437	44.91302245639073
1.3166256280708741	55.88687391287165
1.3210143801644436	58.98863941787044
1.3254177614316587	36.268487186625535
1.329835820636431	11.400786378095077
1.3342686067052192	4.001562124678383
1.33871616872757	2.506234325788978
1.343178555956662	1.1025474532932151
1.347655817809851	0.39036392084117744
1.352148003869217	0.11175129423745597
1.3566551638821147	0.057077796846535
1.3611773477617217	0.0097612058838405
1.3657146055875944	0.003057487081459342
1.3702669876062197	0.004902860736825584
1.3748345442315741	0.01809987111821763
1.3794173260456792	0.02539358114979858
1.384015383799165	0.006180960019898807
1.388628768411829	0.0032700397130676338
1.3932575309732018	0.005879763558678872
1.3979017227431125	0.02292992094993672
1.4025613951522564	0.08742624783494558
1.407236599802764	0.11288358665019235
1.4119273884687735	0.2272887880049946
1.4166338130970026	0.23541218066836755
1.4213559258073263	0.3042813511045851
1.4260937788933508	0.5037361589178146
1.4308474248229952	0.4234293955370232
1.4356169162390722	0.3840130950141454
1.4404023059598692	3.950897061227034
1.4452036469797356	10.130816483978712
1.450020992469668	12.190308250236273
1.4548543957779003	6.279411486014444
1.4597039104304934	3.561560154718628
1.4645695901319284	3.4284735712901977
1.469451488765702	1.4253958157027768
1.4743496603949209	0.2096586892467358
1.479264159262904	0.123867823027503
1.4841950397937806	0.16557919140253455
1.4891423565930935	0.5605478453620703
1.4941061644484037	1.0507529205512256
1.4990865183298985	0.648414693280292
1.5040834733909982	0.9154927839932512
1.5090970849689684	1.785397700367254
1.5141274085855316	0.44631429164227476
1.5191744999474837	0.3117086103728408
1.5242384149473087	1.698405369493142
1.5293192096638	6.825623997419169
1.5344169403626793	5.522904836668599
1.5395316634972218	11.568272966786097
1.544663435708879	11.80888814155909
1.5498123138279087	12.827876508340836
1.554978354874002	40.061003582051676
1.5601616160569156	60.07784550569972
1.5653621547771055	129.5863371205893
1.5705800286263625	419.3886445209889
1.5758152953884506	790.2860462329122
1.5810680130397454	855.7798676420241
1.5863382397498782	1120.5006352256778
1.5916260338823778	2084.385767605132
1.5969314539953192	2141.8751443194574
1.6022545588419705	1428.8193671607962
1.6075954073714436	654.9007241780891
1.6129540587293487	251.21522250090382
1.6183305722584467	95.4719872522833
1.6237250074993084	75.54694773939417
1.6291374241909726	47.40574793344209
1.6345678822716092	36.01440650862059
1.6400164418791816	7.26591369235832
1.6454831633521123	5.377732538209952
1.6509681072299527	5.688535411026972
1.6564713342540527	22.054374645676397
1.6619929053682332	45.280903575772115
1.6675328817194608	18.948378771388914
1.6730913246585257	3.330767091503311
1.6786682957407209	22.074501807379807
1.6842638567265233	26.523885861141387
1.6898780695822784	11.606439743376734
1.6955109964808863	0.980905863681271
1.7011626998024894	1.3644222938020079
1.7068332421351646	8.772836521877775
1.7125226862756153	13.3728973863169
1.7182310952298672	19.578654697327973
1.7239585322139668	14.850825207371749
1.7297050606546804	2.1868112178999017
1.7354707441901962	7.59982457072438
1.7412556466708302	17.451182720564866
1.747059832159733	18.951706143974505
1.752883364933599	32.711015094652595
1.7587263094833776	19.59911280469601
1.7645887305149892	9.837298307445232
1.7704706929500391	16.152550529580683
1.7763722619265396	70.73312710690973
1.7822935027996283	75.8151833615831
1.7882344811422937	28.567037718659922
1.7941952627461015	9.67496613214211
1.8001759136219222	4.501049532942833
1.8061765000006618	14.866760941280857
1.8121970883339975	17.567271051185067
1.818237745295111	22.5844947854205
1.8242985377794283	44.377662964247506
1.8303795329053596	16.49198910505709
1.8364807980150446	2.294482163277531
1.8426024006750947	12.298497295715952
1.8487444086773455	16.245050068055093
1.8549068900396033	9.55766637621358
1.861089913006402	5.215070319657364
1.8672935460497566	2.2204913558584116
1.873517857869923	1.576484732168416
1.879762917396156	14.453936714207895
1.8860287937874767	28.590242359338937
1.8923155564334353	31.958875435833633
1.8986232749548801	24.296172583158313
1.9049520192047298	9.605783442822347
1.9113018592687456	9.25890935953436
1.9176728654663082	3.3457670609580883
1.9240651083511964	4.484474953031135
1.9304786587123668	1.410849547530257
1.9369135875747419	0.19557478793872052
1.9433699661999908	0.29545655319896563
1.9498478660873244	0.09262357562864644
1.9563473589742824	1.4243338616847634
1.9628685168375302	8.540491421895487
1.9694114118936552	14.50464583229622
1.9759761165999676	22.419329919051748
1.9825627036553009	23.00496723534945
1.9891712460008188	26.353909061903643
1.9958018168208218	39.11049544469896
2.002454489543558	41.365126205954475
2.0091293378420367	28.15260476499608
2.0158264356348434	17.829271672488908
2.02254585708696	22.35233331170396
2.029287676610583	52.35868703755029
2.036051968865952	66.77713851699629
2.042838808762172	82.20394408319407
2.049648271458046	92.1153485539057
2.0564804323629065	144.01483098535002
2.0633353671374497	226.26354777208869
2.0702131516945745	311.5504398980739
2.0771138622002234	284.4362964412423
2.084037575074224	245.2232426251433
2.0909843669911385	226.70665710439204
2.097954314881109	223.0944357259526
2.1049474959307126	282.7031242377708
2.1119639875838154	334.4431552095075
2.1190038675424283	278.6436513096217
2.12606721376757	284.4229350497716
2.1331541044801288	290.32555523803285
2.140264618161729	212.57546545831195
2.147398833555602	158.9957839601453
2.154556829667454	149.60997717389995
2.1617386857663456	83.82010465804746
2.1689444813855667	88.10197979927001
2.176174296323519	112.05877723285073
2.1834282106445975	97.46239598782765
2.19070630468008	42.6663261674801
2.1980086590290138	6.3944834528611745
2.2053353545591103	3.995911042045685
2.2126864724076407	9.408047209687076
2.220062093982333	4.893400798538044
2.2274623009622747	1.159810275385921
2.2348871752988155	0.511444826385852
2.2423367992164787	0.3718232433653313
2.2498112552138667	0.2601461283559911
2.25731062606458	0.19959902721241343
2.2648349948181288	0.09639584471841618
2.272384444800856	0.2629766874171205
2.2799590596168593	0.7000219502644065
2.2875589231489153	0.3185729670164775
2.295184119559412	0.21064709559662104
2.302834733291277	1.6147925251731752
2.3105108490689146	3.4656011771394777
2.3182125518991445	1.919978804273021
2.325939927072142	0.2049650848514113
