#wavelength (micron)	surface_flux (erg / (cm2 micron s))
0.40133895199999997	0.017011374361332734
0.40267674850666674	0.017746381978905934
0.40401900433502225	0.0047656851019959355
0.4053657343494724	0.005264153373504602
0.4067169534639707	0.02718728668289455
0.40807267664218394	0.09193065145602554
0.4094329188976579	0.22481967349084422
0.41079769529398347	0.4464235965171744
0.41216702094496344	0.7744891177138021
0.41354091101477997	1.2269573637333842
0.4149193807181627	1.814416330305836
0.41630244532055655	2.5212596605889037
0.41769012013829176	3.1947361184513525
0.41908242053875283	3.2194474780549576
0.4204793619405487	2.9131706367043324
0.42188095981368384	4.549425236177238
0.42328722967972954	7.983256364753973
0.4246981871119953	11.53100928452011
0.42611384773570193	14.964685111225739
0.4275342272281543	18.682389429275226
0.4289593413189149	22.84613982145211
0.43038920578997797	27.558301358409196
0.4318238364759446	32.90684802364806
0.43326324926419774	38.96770914220092
0.4347074600950785	45.81864219231794
0.4361564849620621	53.54144275360977
0.43761033991193565	62.2193366961158
0.4390690410449755	71.92623513124478
0.44053260451512544	82.7873921686181
0.4420010465301759	94.77814090623642
0.44347438335194317	108.28767642409332
0.4449526312964497	123.57784585312142
0.44643580673410455	140.4389600042667
0.44792392608988496	159.16430605757373
0.4494170058435179	179.93202020699076
0.450915062529663	202.66037481012305
0.4524181127380953	226.65746805605485
0.45392617311388894	249.908778756983
0.45543926035760196	271.1686947681447
0.45695739122546064	260.3735412477988
0.4584805825295456	221.27920753820047
0.46000885113797746	214.78499343012257
0.46154221397510403	212.94547482881606
0.4630806880216877	206.20114500987052
0.4646242903150934	195.49193581394462
0.4661730379494771	183.33986824447217
0.4677269480759754	169.5012101183389
0.4692860379028953	151.8151515937321
0.47085032469590504	131.37820643354553
0.4724198257782247	110.47410197888533
0.47399455853081884	91.37752552759912
0.4755745403925883	75.61457012052877
0.4771597888605636	63.60771005754217
0.47875032149009894	54.87143716993937
0.4803461558950659	47.428745146116626
0.48194730974804956	40.68981919368705
0.48355380078054305	34.949725934718366
0.4851656467831449	30.427982999436765
0.48678286560575545	27.14140928361566
0.4884054751577746	24.69862342391149
0.4900334934083006	22.800691343671975
0.4916669383863283	21.11116087180364
0.4933058281809494	19.447839027629268
0.4949501809415526	17.787399617912584
0.4966000148780246	16.05767479850394
0.4982553482609513	14.143984356343179
0.4999161994218212	12.19684110044981
0.5015825867532273	10.418595719886772
0.5032545287090715	9.031983468689223
0.5049320438047684	8.40335493804042
0.506615150617451	8.299363863782041
0.5083038677861758	8.274817436838994
0.5099982140121297	8.295945374591177
0.5116982080588369	8.291982753270958
0.5134038687523664	8.302207306391358
0.515115214981541	8.382410859832055
0.5168322656981462	8.518893092268934
0.5185550399171401	8.683609091264527
0.5202835567168639	8.827880747161089
0.5220178352392535	8.943632081820626
0.5237578946900511	9.025723678545063
0.525503754339018	9.11854850316864
0.527255433520148	9.205596311810382
0.5290129516318819	9.284493845792293
0.5307763281373216	9.367824858796775
0.532545582564446	9.47205291506017
0.5343207345063276	9.584010681154586
0.5361018036213486	9.67981032260698
0.5378888096334199	9.759066557499912
0.5396817723321979	9.783994602379522
0.5414807115733054	9.82585676451171
0.5432856472785497	10.004627789251224
0.545096599436145	10.137907269575615
0.5469135881009322	10.23395793417363
0.5487366333946019	10.417747151077542
0.5505657555059172	10.583342357787433
0.5524009746909371	10.754900792572709
0.5542423112732402	10.91470503162173
0.556089785644151	11.04713299481176
0.557943418262965	11.164074687853558
0.5598032296571749	11.254731167098475
0.5616692404226988	11.318776576019287
0.5635414712241079	11.367478668432508
0.5654199427948549	11.364707373560387
0.5673046759375044	11.152089073785712
0.569195691523963	10.942559391559913
0.5710930104957095	10.994303534941164
0.5729966538640286	10.847337615080528
0.5749066427102419	10.568163485099769
0.576822998185943	10.19928876368579
0.5787457415132294	9.741062485231033
0.5806748939849402	9.102719068385275
0.58261047696489	8.299520877285705
0.5845525118881064	7.203553303422298
0.5865010202610669	5.033336773812514
0.588456023661937	1.9872474020827775
0.5904175437408102	1.9061262652155992
0.5923856022199464	5.879755681587331
0.5943602208940129	10.1964864702044
0.5963414216303263	14.195306845775912
0.598329226369094	18.656194094734005
0.6003236571236578	23.984782760859275
0.6023247359807368	30.4346586775349
0.6043324851006725	38.258982405221246
0.6063469267176749	47.549183883357216
0.6083680831400672	58.00513005416385
0.610395976750534	70.08574565742803
0.6124306300063692	84.13189635217093
0.6144720654397238	100.41386836716889
0.6165203056578563	118.99077849778087
0.6185753733433824	140.36008325627964
0.6206372912545272	164.60025156864842
0.6227060822253756	191.5369340530672
0.6247817691661269	219.6110904391671
0.6268643750633474	249.47000510129658
0.6289539229802253	290.69104548888043
0.6310504360568261	338.5022260509282
0.6331539375103489	387.25427015352085
0.6352644506353834	448.43836389118
0.6373819988041681	512.4709551755792
0.6395066054668487	583.6589842696281
0.6416382941517382	666.6149951315987
0.6437770884655775	744.7946583513491
0.6459230120937961	803.3887770640681
0.6480760888007754	903.5842581667304
0.6502363424301114	1058.0524320578836
0.6524037969048785	1201.8350788781408
0.6545784762278948	1368.3822308693598
0.6567604044819878	1531.4815144659171
0.6589496058302612	1741.6318787264663
0.6611461045163621	1991.7353120623973
0.66334992486475	2270.501408263644
0.6655610912809659	2567.4595592374217
0.6677796282519025	2865.3308678665853
0.6700055603460756	3076.8068057610317
0.6722389122138959	3416.47198426973
0.6744797085879423	3920.3921936684264
0.6767279742832354	4299.813567882863
0.6789837341975129	4569.325232387137
0.6812470133115047	4705.199055636175
0.6835178366892097	4674.127617669182
0.6857962294781739	4464.358696380415
0.6880822169097679	4084.0057359187763
0.6903758242994671	3483.1912691821585
0.6926770770471321	2764.855470954158
0.6949860006372892	2526.6622501087745
0.6973026206394136	2561.5047767734713
0.6996269627082117	2425.7804172565966
0.7019590525839058	2275.6174841733605
0.7042989160925188	2288.8884844384443
0.7066465791461606	2372.9256270645533
0.7090020677433145	2450.129809089181
0.7113654079691256	2476.544861080564
0.7137366259956894	2398.3847904626855
0.7161157480823418	1844.8086041315682
0.7185028005759496	1436.0524170649924
0.7208978099112028	1708.911688487111
0.7233008026109069	1801.8237441462095
0.7257118052862767	1609.1380692849846
0.728130844637231	1645.3263550534616
0.7305579474526884	1610.6485728021275
0.7329931406108642	1683.6302380280747
0.7354364510795671	1757.763855593322
0.7378879059164991	1889.7113099399717
0.7403475322695541	2043.5094681667597
0.7428153573771193	2193.49792028984
0.7452914085683765	2298.8700014559404
0.7477757132636044	2419.580192034585
0.7502682989744831	2501.353330865439
0.7527691933043982	2541.53305792234
0.7552784239487462	2567.3705905018537
0.7577960186952422	2561.7016157191024
0.7603220054242263	2520.836031194464
0.7628564121089738	2195.0649031666526
0.7653992668160038	1385.0177684435619
0.7679505977053904	1041.6456490665164
0.7705104330310751	1363.3806047013545
0.7730788011411788	2142.552972050072
0.7756557304783162	2911.044251491767
0.7782412495799106	3421.2364608237776
0.7808353870785104	3790.7713908430924
0.7834381717021055	4400.67737846988
0.7860496322744459	4810.691686781102
0.7886697977153608	5364.64175799882
0.7912986970410787	6264.314001769602
0.793936359364549	6642.495973865148
0.7965828138957642	7224.6347580145575
0.7992380899420836	8712.04824226595
0.8019022169085571	10038.82757214821
0.8045752242982523	11252.667852283008
0.80725714171258	11789.12947956242
0.809947998851622	10751.144244171866
0.8126478255144608	9187.417276536464
0.8153566515995091	8529.012991304682
0.8180745071048409	11566.20194335076
0.8208014221285237	15469.69738019552
0.8235374268689521	15969.964914635952
0.8262825516251822	19978.716834079325
0.8290368267972661	21625.551953333088
0.8318002828865904	22498.26507454
0.8345729504962124	24040.830544298908
0.8373548603311998	27132.800640411355
0.8401460431989706	33552.1068522008
0.8429465300096338	38948.66597814271
0.8457563517763327	45281.13238603221
0.8485755396155872	51617.85359303952
0.8514041247476393	56595.290997950615
0.8542421384967981	63736.345235596105
0.8570896122917875	72943.33311795096
0.8599465776660935	81150.6922800855
0.8628130662583139	88608.64135480212
0.8656891098125085	95408.68902876528
0.8685747401785502	100767.84849364473
0.8714699893124788	106043.79769909366
0.8743748892768537	112412.63817541332
0.8772894722411099	118129.77974049217
0.8802137704819137	120737.25992617503
0.8831478163835201	119184.03989033028
0.8860916424381319	100793.13971379315
0.8890452812462591	62717.11990098386
0.89200876551708	34657.34232202385
0.8949821280688037	33062.56622222238
0.8979654018290332	30331.653222153003
0.90095861983513	38173.461388494245
0.9039618152345804	75464.03759329602
0.9069750212853626	82496.35866577731
0.9099982713563137	79208.33027610839
0.9130315989275016	93284.36610851379
0.9160750375905932	104370.96052753837
0.9191286210492287	125481.4571035724
0.9221923831193928	149333.05053207473
0.9252663577297908	105843.55630541175
0.9283505789222235	29914.376103990213
0.9314450808519644	1738.7283892806677
0.9345498977881376	2320.1472953666466
0.9376650641140981	13832.125005576554
0.940790614327812	31379.20956914711
0.9439265830422381	20017.30348337212
0.9470730049857122	10167.889138066153
0.9502299150023314	10055.421387176302
0.9533973480523392	13340.714173156766
0.9565753392125138	12306.6242014883
0.9597639236765556	14022.292374919774
0.9629631367554774	17814.38624772553
0.9661730138779958	41306.16615518432
0.9693935905909224	78961.95886590534
0.972624902559559	104641.74566993782
0.9758669855680909	106508.83033528196
0.9791198755199847	131477.2922366566
0.9823836084383848	157820.56435124896
0.9856582204665127	192435.72468016302
0.9889437478680678	247469.17927276128
0.9922402270276282	284699.10334501794
0.9955476944510537	309512.69232902373
0.9988661867658906	278100.1506383503
1.002195740721777	196684.11098723343
1.0055363931908496	199899.97474866128
1.0088881811681525	188737.687845237
1.0122511417720463	172480.9104357993
1.01562531224462	131281.9681819596
1.019010729952102	96450.10179518607
1.0224074323852759	89967.53321869968
1.0258154571598936	105762.16982826688
1.0292348420170931	117492.40314175279
1.0326656248238169	96340.61937280667
1.0361078435732296	82208.27040871962
1.0395615363851405	97801.16829455312
1.0430267415064245	115733.84286357374
1.0465034973114462	124828.87315875056
1.0499918423024843	126541.8968463203
1.0534918151101593	133745.4934765041
1.05700345449386	139042.6130895311
1.0605267993421728	135786.0614413536
1.0640618886733135	128116.44517696445
1.067608761635558	117340.35430774503
1.0711674575076766	106772.9589750239
1.0747380156993689	97468.60453744492
1.0783204757517002	88623.91004175133
1.0819148773375393	80502.83848029826
1.085521260261998	72581.66059666077
1.0891396644628712	64464.56329090176
1.092770130011081	53322.62564519864
1.0964126971111179	39877.087895434466
1.1000674061014886	28316.37669384702
1.10373429745516	16904.7109165739
1.1074134117800107	7750.369313928077
1.1111047898192774	2833.632821335952
1.1148084724520084	1280.714975576799
1.1185245006935154	835.4432311144573
1.1222529156958272	865.2752242422123
1.1259937587481466	1115.4395028733138
1.1297470712773072	1714.2781002501322
1.1335128948482316	1307.6326121057182
1.1372912711643925	2559.8878617843316
1.1410822420682738	4762.87291789412
1.1448858495418348	2699.031010714103
1.1487021357069744	1150.5811502619047
1.1525311428259977	894.5220840107798
1.1563729133020846	377.34673268160634
1.1602274896797582	403.017484029312
1.1640949146453576	1147.8836843068511
1.1679752310275089	2445.3449147617494
1.1718684817976006	1702.1702825417326
1.1757747100702594	1974.2144688562275
1.1796939591038271	4692.610611518434
1.1836262723008397	5832.0876700866565
1.1875716932085094	6907.98654079204
1.1915302655192046	8376.83531602048
1.1955020330709352	10155.984034793126
1.1994870398478386	12926.977043201916
1.2034853299806647	15601.18835106816
1.207496947747267	16591.648844746527
1.2115219375730912	17990.858970463894
1.2155603440316685	21657.298901201368
1.2196122118451074	25425.680923892945
1.2236775858845912	30715.00904048491
1.2277565111708733	41404.30314584887
1.2318490328747762	50199.01297679059
1.2359551963176922	61325.85804829259
1.2400750469720847	78313.63458374399
1.2442086304619917	98599.58339521503
1.248355992563532	116537.44548491383
1.2525171792054102	124945.3948637461
1.2566922364694284	142363.9916289276
1.2608812105909932	177959.35293754478
1.2650841479596302	215757.19735691877
1.2693010951194956	240359.6801400939
1.273532098769894	227615.70731702622
1.2777772057657937	196197.53488318442
1.2820364631183463	162359.288315627
1.2863099179954076	126336.91462218507
1.2905976177220593	103267.64179769375
1.2948996097811327	95592.13842608006
1.2992159418137368	89274.13065942616
1.3035466616197826	75891.32479030076
1.3078918171585154	67093.44031283089
1.3122514565490437	52487.892457136506
1.3166256280708741	43402.66415840386
1.3210143801644436	43424.1487175682
1.3254177614316587	40380.20675188614
1.329835820636431	21992.714761897656
1.3342686067052192	7160.275552059053
1.33871616872757	2398.875322673169
1.343178555956662	266.52881229514094
1.347655817809851	40.5093312472872
1.352148003869217	19.687391162445355
1.3566551638821147	3.2674702665124222
1.3611773477617217	0.7786349498241957
1.3657146055875944	1.1809299330011018
1.3702669876062197	1.8625966430658591
1.3748345442315741	10.993769416894963
1.3794173260456792	15.034095067249336
1.384015383799165	3.5040756303769216
1.388628768411829	11.16746595512618
1.3932575309732018	18.805013657555946
1.3979017227431125	25.39295984774968
1.4025613951522564	39.80493656623319
1.407236599802764	35.159186285086946
1.4119273884687735	49.70052215108784
1.4166338130970026	44.95273008229492
1.4213559258073263	55.393695264269425
1.4260937788933508	93.4536987561264
1.4308474248229952	176.76976017209458
1.4356169162390722	261.68525893163365
1.4404023059598692	457.59919374508155
1.4452036469797356	827.3732063673126
1.450020992469668	1847.6772346972589
1.4548543957779003	3501.7419572850795
1.4597039104304934	4896.82122183574
1.4645695901319284	3012.7189268352195
1.469451488765702	1195.2802972328961
1.4743496603949209	545.3950987762299
1.479264159262904	534.9364934634907
1.4841950397937806	449.6138222927596
1.4891423565930935	395.1273152001438
1.4941061644484037	494.6998517748583
1.4990865183298985	781.3176834222612
1.5040834733909982	1179.5893343274572
1.5090970849689684	1081.5953100385445
1.5141274085855316	391.6189829868145
1.5191744999474837	898.9813025242752
1.5242384149473087	2028.8674234341195
1.5293192096638	3742.3811378662767
1.5344169403626793	4755.393686013388
1.5395316634972218	5746.104334257077
1.544663435708879	9043.001396364825
1.5498123138279087	15043.297679011011
1.554978354874002	25414.763950349006
1.5601616160569156	41028.15493652488
1.5653621547771055	68610.30554271839
1.5705800286263625	105482.91762287795
1.5758152953884506	133591.20151927255
1.5810680130397454	160760.82052870523
1.5863382397498782	180620.5409557366
1.5916260338823778	194640.10515615597
1.5969314539953192	190616.55405783412
1.6022545588419705	162270.82151026398
1.6075954073714436	118958.4597969296
1.6129540587293487	73904.87968259197
1.6183305722584467	36961.634126329736
1.6237250074993084	15731.983737858289
1.6291374241909726	7741.142393731532
1.6345678822716092	5107.278138018357
1.6400164418791816	4310.718633680844
1.6454831633521123	4831.890423596581
1.6509681072299527	5370.50859710723
1.6564713342540527	8603.003378217883
1.6619929053682332	12348.395252815155
1.6675328817194608	5398.5500349768
1.6730913246585257	3972.3985837366345
1.6786682957407209	7387.711454919337
1.6842638567265233	7544.147131219867
1.6898780695822784	4524.432300232269
1.6955109964808863	2527.764182653211
1.7011626998024894	1858.2547809712278
1.7068332421351646	3655.90661912076
1.7125226862756153	5289.093731737064
1.7182310952298672	7208.8439498670805
1.7239585322139668	6306.3504835322
1.7297050606546804	3708.337079006212
1.7354707441901962	3611.3015741875565
1.7412556466708302	4940.35511136941
1.747059832159733	7106.568390228436
1.752883364933599	8400.81233527745
1.7587263094833776	6896.977605559731
1.7645887305149892	5315.028125024822
1.7704706929500391	3932.47129046495
1.7763722619265396	3186.755846355091
1.7822935027996283	2712.3562838958414
1.7882344811422937	1518.3857421501048
1.7941952627461015	728.9116786375525
1.8001759136219222	630.4666582868924
1.8061765000006618	323.93061195231866
1.8121970883339975	296.2412060027096
1.818237745295111	273.2312746669757
1.8242985377794283	366.279252896765
1.8303795329053596	164.17949635117685
1.8364807980150446	61.4969635299773
1.8426024006750947	136.91732876767568
1.8487444086773455	211.52597812132478
1.8549068900396033	163.08089064167402
1.861089913006402	84.64288169641625
1.8672935460497566	35.25288894225043
1.873517857869923	23.898185549355446
1.879762917396156	194.95508648060095
1.8860287937874767	421.70462302774627
1.8923155564334353	528.6512269907164
1.8986232749548801	431.6873858634503
1.9049520192047298	148.68356194713144
1.9113018592687456	130.15114249608547
1.9176728654663082	128.44389734483414
1.9240651083511964	147.5917868344839
1.9304786587123668	65.91564332862195
1.9369135875747419	23.839540568228966
1.9433699661999908	22.02643173314206
1.9498478660873244	44.75512577315278
1.9563473589742824	106.7661250312811
1.9628685168375302	250.41687762065456
1.9694114118936552	385.31277848995353
1.9759761165999676	419.1553826834257
1.9825627036553009	476.8141802295433
1.9891712460008188	638.1051650567699
1.9958018168208218	789.7342960678774
2.002454489543558	811.5285113037918
2.0091293378420367	722.1366873717421
2.0158264356348434	695.7905481836093
2.02254585708696	708.480928091323
2.029287676610583	1116.3602201550507
2.036051968865952	1300.3669948140325
2.042838808762172	1459.1165920597455
2.049648271458046	1704.5896782260247
2.0564804323629065	1845.2953713856928
2.0633353671374497	1887.1417475486685
2.0702131516945745	1891.900549273932
2.0771138622002234	1794.667908816843
2.084037575074224	1706.3539630145865
2.0909843669911385	1625.9495851652414
2.097954314881109	1532.1583639228093
2.1049474959307126	1486.4986055143181
2.1119639875838154	1484.469816935813
2.1190038675424283	1478.5395970969532
2.12606721376757	1488.0504032681106
2.1331541044801288	1466.7955653531303
2.140264618161729	1481.6941548244101
2.147398833555602	1494.271780649239
2.154556829667454	1355.2756070436324
2.1617386857663456	1201.5525546112062
2.1689444813855667	1063.1337710471912
2.176174296323519	962.6041209041927
2.1834282106445975	866.9005841579624
2.19070630468008	563.5561800546402
2.1980086590290138	191.5597131069159
2.2053353545591103	99.34991496904559
2.2126864724076407	180.22985169317576
2.220062093982333	112.72233219050067
2.2274623009622747	92.54645677976221
2.2348871752988155	82.04757656661234
2.2423367992164787	56.32741133931314
2.2498112552138667	33.83039837779531
2.25731062606458	30.628859669587303
2.2648349948181288	10.556515008710377
2.272384444800856	12.409345400216747
2.2799590596168593	25.311077608831837
2.2875589231489153	21.5224284638681
2.295184119559412	16.287831130266405
2.302834733291277	35.391545887776346
2.3105108490689146	90.89633155475421
2.3182125518991445	55.29270986279254
2.325939927072142	24.774264307469245
2.3336930601623824	20.171583207421243
2.341472037029591	22.755686583572462
2.3492769438196897	17.799270585479537
2.3571078669657557	51.78209715138721
2.364964893188975	90.66717179299171
