#wavelength (micron)	surface_flux (erg / (cm2 micron s))
0.40133895199999997	3.5032895498083346e-05
0.40267674850666674	4.642150919463113e-05
0.40401900433502225	2.0150335408501996e-05
0.4053657343494724	2.4217220137697237e-05
0.4067169534639707	8.848023467155852e-05
0.40807267664218394	0.00022389403542738984
0.4094329188976579	0.00044755656306687025
0.41079769529398347	0.0007524686407376081
0.41216702094496344	0.0011259615419415387
0.41354091101477997	0.0016131773636613239
0.4149193807181627	0.0020754341771924557
0.41630244532055655	0.002566616313373626
0.41769012013829176	0.003184846438580607
0.41908242053875283	0.0029661193802355177
0.4204793619405487	0.0020659647263317526
0.42188095981368384	0.0037426901835174173
0.42328722967972954	0.00802766246315709
0.4246981871119953	0.01182733268444891
0.42611384773570193	0.01501831214431938
0.4275342272281543	0.01910238984496636
0.4289593413189149	0.023525581023413875
0.43038920578997797	0.028478351814489676
0.4318238364759446	0.03447554383442375
0.43326324926419774	0.041273352282145466
0.4347074600950785	0.04862771361830918
0.4361564849620621	0.056409490429280305
0.43761033991193565	0.06395428989559696
0.4390690410449755	0.06968389653808915
0.44053260451512544	0.0763995045772697
0.4420010465301759	0.08006282199127736
0.44347438335194317	0.08948829464881118
0.4449526312964497	0.10721161686399237
0.44643580673410455	0.12324620636644598
0.44792392608988496	0.1426062038275354
0.4494170058435179	0.17072965380658142
0.450915062529663	0.2058331234265259
0.4524181127380953	0.2430335803425436
0.45392617311388894	0.2748853821776355
0.45543926035760196	0.29346693152781356
0.45695739122546064	0.315810997116605
0.4584805825295456	0.31805942931938364
0.46000885113797746	0.3323297181554576
0.46154221397510403	0.35352797722559437
0.4630806880216877	0.3622420800245638
0.4646242903150934	0.3648397391652547
0.4661730379494771	0.3484910841784536
0.4677269480759754	0.32695482434565126
0.4692860379028953	0.30382923401551043
0.47085032469590504	0.2902214387403741
0.4724198257782247	0.27751680774854415
0.47399455853081884	0.2570267689837024
0.4755745403925883	0.24599095619301165
0.4771597888605636	0.23684443729179813
0.47875032149009894	0.23000914516025195
0.4803461558950659	0.21453749494650304
0.48194730974804956	0.19062537713314046
0.48355380078054305	0.15728612768086872
0.4851656467831449	0.11889987572095564
0.48678286560575545	0.10368788880789528
0.4884054751577746	0.0963688755990388
0.4900334934083006	0.08677557485860524
0.4916669383863283	0.08037075913439753
0.4933058281809494	0.07459268847186958
0.4949501809415526	0.06902438500615378
0.4966000148780246	0.06342684674695595
0.4982553482609513	0.05434004101573741
0.4999161994218212	0.046410314200283735
0.5015825867532273	0.03747044297473806
0.5032545287090715	0.02754736593867777
0.5049320438047684	0.025837751805510824
0.506615150617451	0.0312087203095342
0.5083038677861758	0.032940329981662526
0.5099982140121297	0.03575881254594659
0.5116982080588369	0.04012535200575412
0.5134038687523664	0.044513911332648225
0.515115214981541	0.0491924981901007
0.5168322656981462	0.05329811265558248
0.5185550399171401	0.0588922959201962
0.5202835567168639	0.06392493149048432
0.5220178352392535	0.06790354330461289
0.5237578946900511	0.07062810985027251
0.525503754339018	0.07472582354949264
0.527255433520148	0.0788286506068489
0.5290129516318819	0.08251283327809325
0.5307763281373216	0.08676788268158835
0.532545582564446	0.09225485919858391
0.5343207345063276	0.09765550011747517
0.5361018036213486	0.1015240243194059
0.5378888096334199	0.10486412288705234
0.5396817723321979	0.1053610458254221
0.5414807115733054	0.10589608142093687
0.5432856472785497	0.11465392802779277
0.545096599436145	0.11939140543520899
0.5469135881009322	0.11970283360190605
0.5487366333946019	0.13384131719873357
0.5505657555059172	0.1478686042249068
0.5524009746909371	0.16026324072621856
0.5542423112732402	0.1714689603129713
0.556089785644151	0.18263121116264466
0.557943418262965	0.3594737159983587
0.5598032296571749	-1.105043880457422
0.5616692404226988	0.2185930601724656
0.5635414712241079	0.21782203040531403
0.5654199427948549	0.22052331266527056
0.5673046759375044	0.1964789436021897
0.569195691523963	0.1759340545536939
0.5710930104957095	0.1947204571756559
0.5729966538640286	0.20581930384846478
0.5749066427102419	0.2023795740953248
0.576822998185943	0.193726294409561
0.5787457415132294	0.19712001709833776
0.5806748939849402	0.18722917673349662
0.58261047696489	0.16474259642279762
0.5845525118881064	0.13616190870689218
0.5865010202610669	0.07685530321787629
0.588456023661937	0.019223214418878583
0.5904175437408102	0.013865172915149179
0.5923856022199464	0.06044874286591469
0.5943602208940129	0.13428148963417777
0.5963414216303263	0.21697817966688002
0.598329226369094	0.2875730224238198
0.6003236571236578	0.4058756508489387
0.6023247359807368	0.5901617004896483
0.6043324851006725	0.8500009723755368
0.6063469267176749	1.1787816205368102
0.6083680831400672	1.5089060878494376
0.610395976750534	1.8957913610824313
0.6124306300063692	2.3230451434890322
0.6144720654397238	2.806678616915833
0.6165203056578563	3.3021262460371608
0.6185753733433824	3.8563046672544234
0.6206372912545272	4.447499449894885
0.6227060822253756	5.033237899387018
0.6247817691661269	5.459361671611131
0.6268643750633474	5.563678187527897
0.6289539229802253	6.332386740386893
0.6310504360568261	7.504601122166335
0.6331539375103489	8.17668583459331
0.6352644506353834	9.90237901546982
0.6373819988041681	10.753393825327164
0.6395066054668487	11.215801587479913
0.6416382941517382	12.47635047692291
0.6437770884655775	12.3184981648492
0.6459230120937961	8.904739495746213
0.6480760888007754	8.550193194368738
0.6502363424301114	12.8138037661437
0.6524037969048785	15.115079230181914
0.6545784762278948	17.25606903037272
0.6567604044819878	17.66108471608621
0.6589496058302612	21.433977216441622
0.6611461045163621	26.776610887691778
0.66334992486475	34.577193271967325
0.6655610912809659	41.711327965805744
0.6677796282519025	52.66437002425232
0.6700055603460756	61.845426877973125
0.6722389122138959	73.10889698857305
0.6744797085879423	87.28730862270902
0.6767279742832354	96.63964396106294
0.6789837341975129	102.2367908674159
0.6812470133115047	105.680652895673
0.6835178366892097	108.29697759266246
0.6857962294781739	105.32666870936939
0.6880822169097679	94.41821037770349
0.6903758242994671	67.35262669578505
0.6926770770471321	28.59051219134128
0.6949860006372892	27.103716160727753
0.6973026206394136	45.239293224780006
0.6996269627082117	42.41096341590354
0.7019590525839058	27.703686226302775
0.7042989160925188	30.075455808201514
0.7066465791461606	35.3400396384145
0.7090020677433145	37.99487993014764
0.7113654079691256	38.765628434300986
0.7137366259956894	34.584283850180995
0.7161157480823418	14.328361937454032
0.7185028005759496	2.3088406418610337
0.7208978099112028	4.330046807364543
0.7233008026109069	6.806829070459025
0.7257118052862767	6.18229291676955
0.728130844637231	7.748901754683218
0.7305579474526884	6.4893735980545
0.7329931406108642	9.502133881223825
0.7354364510795671	11.675550310294604
0.7378879059164991	19.33387012204136
0.7403475322695541	39.95423719086247
0.7428153573771193	68.55055031866259
0.7452914085683765	91.35059141038255
0.7477757132636044	130.83488821969755
0.7502682989744831	162.28313863114414
0.7527691933043982	189.79180779166
0.7552784239487462	226.18804709562804
0.7577960186952422	255.84962326765452
0.7603220054242263	272.9627628165607
0.7628564121089738	261.1650988099872
0.7653992668160038	171.62179780515487
0.7679505977053904	125.48733821438285
0.7705104330310751	178.08802852979903
0.7730788011411788	293.2780329760585
0.7756557304783162	378.3157028912191
0.7782412495799106	393.76933037482064
0.7808353870785104	360.68360539590725
0.7834381717021055	336.137150462464
0.7860496322744459	239.9579800606847
0.7886697977153608	222.51915906656563
0.7912986970410787	345.92552955926146
0.793936359364549	401.9283478937839
0.7965828138957642	337.94159854164553
0.7992380899420836	306.8782467903328
0.8019022169085571	341.57847829860805
0.8045752242982523	369.2992552944356
0.80725714171258	322.392866666628
0.809947998851622	140.90851399690743
0.8126478255144608	28.399726014769563
0.8153566515995091	12.752561733743741
0.8180745071048409	38.3915661401877
0.8208014221285237	83.24607382090939
0.8235374268689521	80.1894097493793
0.8262825516251822	99.68825052782122
0.8290368267972661	85.48619363429941
0.8318002828865904	63.69636750077897
0.8345729504962124	54.77648384303357
0.8373548603311998	71.50625117150126
0.8401460431989706	135.97759018066327
0.8429465300096338	173.18665033258696
0.8457563517763327	237.60805847772616
0.8485755396155872	293.3658336058829
0.8514041247476393	353.5001005208854
0.8542421384967981	423.259272184406
0.8570896122917875	499.016618163542
0.8599465776660935	578.5708984465391
0.8628130662583139	597.6243528834883
0.8656891098125085	556.4230437247953
0.8685747401785502	437.55706305019686
0.8714699893124788	332.67643886811203
0.8743748892768537	272.56441023189126
0.8772894722411099	220.8208770937268
0.8802137704819137	147.4485161554787
0.8831478163835201	92.38936587170232
0.8860916424381319	40.17446032400539
0.8890452812462591	4.740075110086974
0.89200876551708	0.10930118666639717
0.8949821280688037	0.028238428793542922
0.8979654018290332	0.027568904371033903
0.90095861983513	0.12723279925340558
0.9039618152345804	0.3881378441053469
0.9069750212853626	0.23312543588633813
0.9099982713563137	0.4845231077879052
0.9130315989275016	1.8002093960537728
0.9160750375905932	3.898985703431227
0.9191286210492287	18.552761233629507
0.9221923831193928	33.793982030208504
0.9252663577297908	15.625882111885778
0.9283505789222235	2.083223643478835
0.9314450808519644	0.04844406722476361
0.9345498977881376	0.0019102384086797277
0.9376650641140981	0.03197020812268958
0.940790614327812	0.09335237766406014
0.9439265830422381	0.07439891396208606
0.9470730049857122	0.10541381821125807
0.9502299150023314	0.11736398590313225
0.9533973480523392	0.06436106838345436
0.9565753392125138	0.10107637788424126
0.9597639236765556	0.10110791165266457
0.9629631367554774	0.4482992021278824
0.9661730138779958	4.973881817131268
0.9693935905909224	9.83613603882961
0.972624902559559	8.503610981746144
0.9758669855680909	3.5561974423504132
0.9791198755199847	2.4823381748922735
0.9823836084383848	2.3510264769059446
0.9856582204665127	2.891345843808766
0.9889437478680678	3.5744135008992743
0.9922402270276282	4.028443770601706
0.9955476944510537	3.6204578492421637
0.9988661867658906	3.3241400176465756
1.002195740721777	2.7564673188170725
1.0055363931908496	2.3033338526378793
1.0088881811681525	2.039895978365314
1.0122511417720463	2.0170370602183243
1.01562531224462	0.8005215847131297
1.019010729952102	0.14007993162506996
1.0224074323852759	0.06279721904618624
1.0258154571598936	0.14169659491998188
1.0292348420170931	0.24898404962136667
1.0326656248238169	0.1361207258580642
1.0361078435732296	0.11634240997938117
1.0395615363851405	0.7258449527139458
1.0430267415064245	2.2660793380847677
1.0465034973114462	3.2780879407347867
1.0499918423024843	4.216406874215185
1.0534918151101593	13.955806462879261
1.05700345449386	31.001280629360547
1.0605267993421728	40.184838186815405
1.0640618886733135	43.26163483267587
1.067608761635558	39.750941833081775
1.0711674575076766	34.145676213916786
1.0747380156993689	26.906016530216966
1.0783204757517002	21.03522655190152
1.0819148773375393	15.557476822907844
1.085521260261998	11.552078754882949
1.0891396644628712	9.934880187217898
1.092770130011081	7.997159620627807
1.0964126971111179	3.93893688030988
1.1000674061014886	2.273864475568743
1.10373429745516	1.7471416968899103
1.1074134117800107	0.5244282601439271
1.1111047898192774	0.10501748841321407
1.1148084724520084	0.03523819557471563
1.1185245006935154	0.007014824719508693
1.1222529156958272	0.003123107967841261
1.1259937587481466	0.002203888923530073
1.1297470712773072	0.004723673195164394
1.1335128948482316	0.003959159436223349
1.1372912711643925	0.013116973617976604
1.1410822420682738	0.037336419707623324
1.1448858495418348	0.024022326202057433
1.1487021357069744	0.004996079551899684
1.1525311428259977	0.00218067290946243
1.1563729133020846	0.0004181813263473741
1.1602274896797582	1.9446846110168826e-05
1.1640949146453576	0.002629401187867601
1.1679752310275089	0.010932099684136101
1.1718684817976006	0.00462060323746537
1.1757747100702594	0.0013147029556965005
1.1796939591038271	0.006583876421639745
1.1836262723008397	0.004968241795872384
1.1875716932085094	0.0014397946244409882
1.1915302655192046	0.004045144013923094
1.1955020330709352	0.01697593463910962
1.1994870398478386	0.0397158122460943
1.2034853299806647	0.03165058438249369
1.207496947747267	0.017701435543529147
1.2115219375730912	0.018207593788458494
1.2155603440316685	0.0228790905622328
1.2196122118451074	0.04718539885144171
1.2236775858845912	0.09139770386661429
1.2277565111708733	0.4422928839513908
1.2318490328747762	0.7441614860692276
1.2359551963176922	1.3794422681991179
1.2400750469720847	5.452963871156202
1.2442086304619917	13.549827087994771
1.248355992563532	20.392422020427198
1.2525171792054102	17.886901267390588
1.2566922364694284	18.346862315459703
1.2608812105909932	37.488370665306704
1.2650841479596302	91.75454293239439
1.2693010951194956	153.26709485724874
1.273532098769894	98.26533010113684
1.2777772057657937	36.82113826776213
1.2820364631183463	21.438369125132564
1.2863099179954076	8.091931609689691
1.2905976177220593	3.443932329009173
1.2948996097811327	2.8072978241967164
1.2992159418137368	1.5010376101986715
1.3035466616197826	1.339016879264789
1.3078918171585154	1.2019104543241255
1.3122514565490437	0.455218559440709
1.3166256280708741	0.3385626139137154
1.3210143801644436	0.35480850897698746
1.3254177614316587	0.33580998471117984
1.329835820636431	0.20636876243467733
1.3342686067052192	0.15211955119487933
1.33871616872757	0.08178032812140451
1.343178555956662	0.00835697693156593
1.347655817809851	0.0011235451443858276
1.352148003869217	0.00011319740091861174
1.3566551638821147	2.9800820888209417e-05
1.3611773477617217	1.1031356179450836e-06
1.3657146055875944	1.0076400965748606e-06
1.3702669876062197	8.07748554674026e-07
1.3748345442315741	8.258222659627889e-06
1.3794173260456792	1.2614510374123822e-05
1.384015383799165	2.428565385030772e-06
1.388628768411829	5.8602272483060245e-06
1.3932575309732018	1.1413645079008118e-05
1.3979017227431125	3.4620144545328774e-05
1.4025613951522564	8.1147428335832e-05
1.407236599802764	0.00013874625514912405
1.4119273884687735	0.000499805762009368
1.4166338130970026	0.0004809420410379493
1.4213559258073263	0.0005240253813575284
1.4260937788933508	0.0010988416624195588
1.4308474248229952	0.0013362675538078593
1.4356169162390722	0.0019140707521026004
1.4404023059598692	0.007729859172252459
1.4452036469797356	0.022678671607662848
1.450020992469668	0.0772586722399867
1.4548543957779003	0.13292450832326505
1.4597039104304934	0.09111406329948535
1.4645695901319284	0.041657039631004734
1.469451488765702	0.0071872854169178725
1.4743496603949209	0.0007140459904258967
1.479264159262904	0.0009741612404256107
1.4841950397937806	0.00046075803388844643
1.4891423565930935	0.00047586783052134163
1.4941061644484037	0.0007341700048872719
1.4990865183298985	0.0005396832970645232
1.5040834733909982	0.000754907926216749
1.5090970849689684	0.0015709467796886957
1.5141274085855316	0.00038026047511697375
1.5191744999474837	0.0005773942067457005
1.5242384149473087	0.005732255277311685
1.5293192096638	0.023213763207191967
1.5344169403626793	0.016866699005399496
1.5395316634972218	0.029014788228387905
1.544663435708879	0.05431065380524134
1.5498123138279087	0.17360196853357004
1.554978354874002	0.7072154493548665
1.5601616160569156	1.8084804362377898
1.5653621547771055	7.9137162762634
1.5705800286263625	25.840665101366522
1.5758152953884506	45.0585297465787
1.5810680130397454	58.31892573800255
1.5863382397498782	76.49161514157048
1.5916260338823778	143.08726789544903
1.5969314539953192	167.81910693572732
1.6022545588419705	145.6954472878256
1.6075954073714436	77.95599924612402
1.6129540587293487	26.965376854957157
1.6183305722584467	6.289802491837318
1.6237250074993084	1.8271275274888956
1.6291374241909726	0.45583128532108347
1.6345678822716092	0.19435256363419087
1.6400164418791816	0.038581322035624664
1.6454831633521123	0.02975138130200207
1.6509681072299527	0.00980519037713598
1.6564713342540527	0.4817908926803246
1.6619929053682332	1.1265793215012108
1.6675328817194608	0.3260711828760204
1.6730913246585257	0.06394912049498029
1.6786682957407209	0.4798005185678634
1.6842638567265233	0.48459997394386495
1.6898780695822784	0.12086974684812561
1.6955109964808863	0.007150887720567685
1.7011626998024894	0.00599639698668482
1.7068332421351646	0.11250691436610251
1.7125226862756153	0.19886942363317126
1.7182310952298672	0.2584366215508015
1.7239585322139668	0.1557117671994195
1.7297050606546804	0.008300733311785305
1.7354707441901962	0.05226372676938061
1.7412556466708302	0.19968226528690158
1.747059832159733	0.27101796225365504
1.752883364933599	0.3129086225258987
1.7587263094833776	0.1681376648595372
1.7645887305149892	0.11391945873782275
1.7704706929500391	0.0955400476464363
1.7763722619265396	0.3926805876342093
1.7822935027996283	0.6303196769300143
1.7882344811422937	0.17476471043001973
1.7941952627461015	0.04320059141105005
1.8001759136219222	0.023102305609455014
1.8061765000006618	0.023046887086560587
1.8121970883339975	0.026822430471566634
1.818237745295111	0.0466528345681957
1.8242985377794283	0.1030935093505241
1.8303795329053596	0.03668079348876392
1.8364807980150446	0.003989274319366434
1.8426024006750947	0.01544156252261771
1.8487444086773455	0.018265761929278004
1.8549068900396033	0.009503283989162439
1.861089913006402	0.006029930643935316
1.8672935460497566	0.0023947439199525013
1.873517857869923	0.0021540228352948275
1.879762917396156	0.024374947497016995
1.8860287937874767	0.07001680826430234
1.8923155564334353	0.06771960595892805
1.8986232749548801	0.03420885389999225
1.9049520192047298	0.013997809277325525
1.9113018592687456	0.012914178315311784
1.9176728654663082	0.015057721926050266
1.9240651083511964	0.023798590760229138
1.9304786587123668	0.006576882759539977
1.9369135875747419	0.0002835069371402835
1.9433699661999908	0.00016631694438308314
1.9498478660873244	0.00010175325764280222
1.9563473589742824	0.003365368484791516
1.9628685168375302	0.013725648630225126
1.9694114118936552	0.0191625449528697
1.9759761165999676	0.024652699024224067
1.9825627036553009	0.02238971242203958
1.9891712460008188	0.041031267903636544
1.9958018168208218	0.08758396690568718
2.002454489543558	0.09446576656343963
2.0091293378420367	0.04982359825863971
2.0158264356348434	0.03987669367144224
2.02254585708696	0.07407248002356286
2.029287676610583	0.18533599213900148
2.036051968865952	0.1952660586135384
2.042838808762172	0.18775456373218574
2.049648271458046	0.20731481536076846
2.0564804323629065	0.25790875086494675
2.0633353671374497	0.2784748311149026
2.0702131516945745	0.28299801874020764
2.0771138622002234	0.22554622332272084
2.084037575074224	0.2015980090213043
2.0909843669911385	0.17875797369691487
2.097954314881109	0.1485558402848568
2.1049474959307126	0.14209693851478014
2.1119639875838154	0.1542600236759565
2.1190038675424283	0.16057411898342797
2.12606721376757	0.18155254461851114
2.1331541044801288	0.20077455213673706
2.140264618161729	0.2084766442552866
2.147398833555602	0.22761538579986645
2.154556829667454	0.22248569080194885
2.1617386857663456	0.17241844762551153
2.1689444813855667	0.15575476715212
2.176174296323519	0.16503121355085373
2.1834282106445975	0.1482608488547022
2.19070630468008	0.08582846397037891
2.1980086590290138	0.01908495151659927
2.2053353545591103	0.004987963192479985
2.2126864724076407	0.008144257764585085
2.220062093982333	0.0031132146652614306
2.2274623009622747	0.002352460151799484
2.2348871752988155	0.0011602534696711
