#wavelength (micron)	surface_flux (erg / (cm2 micron s))
0.40133895199999997	1.0263965790501972
0.40267674850666674	0.8377780855925628
0.40401900433502225	0.09510754988279406
0.4053657343494724	0.10200368523075042
0.4067169534639707	1.3066738676736924
0.40807267664218394	7.6103362141655
0.4094329188976579	27.767366117115447
0.41079769529398347	74.99677991046948
0.41216702094496344	164.58169943743323
0.41354091101477997	310.3717158856469
0.4149193807181627	518.9577188105534
0.41630244532055655	774.8324705807403
0.41769012013829176	974.1992805123772
0.41908242053875283	746.9025907198644
0.4204793619405487	261.15095488801023
0.42188095981368384	677.8708966717237
0.42328722967972954	2265.500793093673
0.4246981871119953	3812.5270036918287
0.42611384773570193	4970.454146157503
0.4275342272281543	6105.919117578216
0.4289593413189149	7340.536827370195
0.43038920578997797	8622.642510316693
0.4318238364759446	9884.051150497744
0.43326324926419774	11554.848661673239
0.4347074600950785	12899.947310101734
0.4361564849620621	14002.721550940612
0.43761033991193565	15452.535644095735
0.4390690410449755	17393.602053872142
0.44053260451512544	18817.92815008414
0.4420010465301759	21129.259209208903
0.44347438335194317	24213.4364956559
0.4449526312964497	27233.113161272286
0.44643580673410455	28446.345509466282
0.44792392608988496	29796.928431523876
0.4494170058435179	32111.766280933145
0.450915062529663	34153.967020729164
0.4524181127380953	36165.144995046045
0.45392617311388894	37254.59862022112
0.45543926035760196	27741.133074699042
0.45695739122546064	21065.496334209492
0.4584805825295456	9713.017933853482
0.46000885113797746	5601.244734611767
0.46154221397510403	4853.811160051203
0.4630806880216877	3938.8916036383616
0.4646242903150934	3107.743638116076
0.4661730379494771	2482.381266094092
0.4677269480759754	1977.8955096836778
0.4692860379028953	1498.9640002053793
0.47085032469590504	1064.4933060287492
0.4724198257782247	713.613918240698
0.47399455853081884	460.5000502063237
0.4755745403925883	295.8615104539792
0.4771597888605636	195.537885705171
0.47875032149009894	136.07988281816287
0.4803461558950659	96.17782889829435
0.48194730974804956	67.58619805265454
0.48355380078054305	47.9428741019399
0.4851656467831449	34.98137634690008
0.48678286560575545	26.677642634602154
0.4884054751577746	21.137655628194704
0.4900334934083006	17.17712998860983
0.4916669383863283	14.100093323698676
0.4933058281809494	11.56371455769679
0.4949501809415526	9.484247141792856
0.4966000148780246	7.731921256330538
0.4982553482609513	6.159551576344489
0.4999161994218212	4.835739343340515
0.5015825867532273	3.840287049028686
0.5032545287090715	3.189858252830973
0.5049320438047684	2.884175580705908
0.506615150617451	2.8607731944007457
0.5083038677861758	2.8824361533735616
0.5099982140121297	2.9126415621676314
0.5116982080588369	2.9419033311296583
0.5134038687523664	2.982831593581873
0.515115214981541	3.034532257900437
0.5168322656981462	3.082682322139823
0.5185550399171401	3.15731995838014
0.5202835567168639	3.221138266552775
0.5220178352392535	3.277565091456806
0.5237578946900511	3.333698939158024
0.525503754339018	3.396011236865946
0.527255433520148	3.462678886773417
0.5290129516318819	3.53608123057405
0.5307763281373216	3.6209376737139407
0.532545582564446	3.7163459412084774
0.5343207345063276	3.8181629624259403
0.5361018036213486	3.9241430633773913
0.5378888096334199	4.042148811749138
0.5396817723321979	4.166810354010004
0.5414807115733054	4.293975397916836
0.5432856472785497	4.442633200113553
0.545096599436145	4.571883952236869
0.5469135881009322	4.69768605562824
0.5487366333946019	4.892788704842615
0.5505657555059172	5.080907730175603
0.5524009746909371	5.26586873471297
0.5542423112732402	5.442513881530248
0.556089785644151	5.6211367165379755
0.557943418262965	5.797425439113869
0.5598032296571749	5.961738638487719
0.5616692404226988	6.109757749402721
0.5635414712241079	6.243694983695089
0.5654199427948549	6.347357218571162
0.5673046759375044	6.3486729046821
0.569195691523963	6.326622042740472
0.5710930104957095	6.366565814673505
0.5729966538640286	6.358554143635031
0.5749066427102419	6.232928665968746
0.576822998185943	6.011433226147826
0.5787457415132294	5.760041905522035
0.5806748939849402	5.395083504581638
0.58261047696489	4.920760980307614
0.5845525118881064	4.242706447646916
0.5865010202610669	2.87908971198655
0.588456023661937	1.0751640380528211
0.5904175437408102	1.0131239408819326
0.5923856022199464	3.3515279579282287
0.5943602208940129	6.223307613807378
0.5963414216303263	8.929071226189189
0.598329226369094	11.809273127103431
0.6003236571236578	15.147710205348332
0.6023247359807368	18.998524893755626
0.6043324851006725	23.392025132336595
0.6063469267176749	28.344024337998498
0.6083680831400672	33.823998081508364
0.610395976750534	39.83498589226126
0.6124306300063692	46.38095281084934
0.6144720654397238	53.75037820054814
0.6165203056578563	61.86014190185894
0.6185753733433824	70.99931769290681
0.6206372912545272	81.2535900532766
0.6227060822253756	92.80387597676868
0.6247817691661269	105.76151463580169
0.6268643750633474	119.6055682584353
0.6289539229802253	136.23321730617178
0.6310504360568261	156.27035573899133
0.6331539375103489	177.91042379595794
0.6352644506353834	204.7049795402961
0.6373819988041681	232.02124700556624
0.6395066054668487	260.70695959337127
0.6416382941517382	299.2996755850145
0.6437770884655775	335.87777429159416
0.6459230120937961	357.93534285234557
0.6480760888007754	407.5597211887095
0.6502363424301114	489.688359314234
0.6524037969048785	566.4522455899576
0.6545784762278948	642.9609263567683
0.6567604044819878	730.7684043041038
0.6589496058302612	843.5816350466231
0.6611461045163621	962.8744224500552
0.66334992486475	1107.2899426989245
0.6655610912809659	1264.9336867569807
0.6677796282519025	1451.089418448703
0.6700055603460756	1584.4000880951896
0.6722389122138959	1800.1029650485477
0.6744797085879423	2117.768404303373
0.6767279742832354	2354.4639991290765
0.6789837341975129	2564.2987847004933
0.6812470133115047	2732.8188431756475
0.6835178366892097	2821.201636191006
0.6857962294781739	2790.4515474640416
0.6880822169097679	2650.8515993377914
0.6903758242994671	2402.789428019316
0.6926770770471321	2067.7856256165933
0.6949860006372892	1974.5994307241235
0.6973026206394136	2046.9245434696418
0.6996269627082117	2016.0187016233515
0.7019590525839058	1942.1092901813963
0.7042989160925188	2042.4961524763764
0.7066465791461606	2169.8170376067014
0.7090020677433145	2231.7624332422156
0.7113654079691256	2305.959540034727
0.7137366259956894	2337.2248829793757
0.7161157480823418	2119.9953211758702
0.7185028005759496	1935.026189854204
0.7208978099112028	2005.2907141585397
0.7233008026109069	2119.5688641371476
0.7257118052862767	2061.0806417633726
0.728130844637231	2123.488663777735
0.7305579474526884	2023.0701409568544
0.7329931406108642	1930.8367913368634
0.7354364510795671	1927.7938037092852
0.7378879059164991	2098.2176591319567
0.7403475322695541	2299.2411509296558
0.7428153573771193	2399.9493544148077
0.7452914085683765	2475.744276603359
0.7477757132636044	2547.352406191845
0.7502682989744831	2534.9428875395956
0.7527691933043982	2540.196425166182
0.7552784239487462	2543.7314510929264
0.7577960186952422	2548.4115002712447
0.7603220054242263	2484.4616929202593
0.7628564121089738	2035.5261860043345
0.7653992668160038	999.3419872456461
0.7679505977053904	524.431997787458
0.7705104330310751	860.8431999550569
0.7730788011411788	1867.0386548079284
0.7756557304783162	2829.093347772915
0.7782412495799106	3369.0367217109174
0.7808353870785104	3729.356967043322
0.7834381717021055	4430.740447042742
0.7860496322744459	4929.6537376425595
0.7886697977153608	5609.408908456115
0.7912986970410787	6492.446454349672
0.793936359364549	6748.920321684822
0.7965828138957642	7433.404054384374
0.7992380899420836	8891.912380964568
0.8019022169085571	10250.099445488006
0.8045752242982523	11522.758228668652
0.80725714171258	12503.902101795125
0.809947998851622	12452.42184770536
0.8126478255144608	12019.842522220255
0.8153566515995091	11292.318567304179
0.8180745071048409	13447.547670903701
0.8208014221285237	18733.25312720133
0.8235374268689521	20896.5606668198
0.8262825516251822	24407.674095631282
0.8290368267972661	25764.44311769935
0.8318002828865904	27362.479490144742
0.8345729504962124	28547.223204215916
0.8373548603311998	31042.121162109008
0.8401460431989706	39033.28810231158
0.8429465300096338	42926.17662168678
0.8457563517763327	48396.516640617505
0.8485755396155872	55133.013857413374
0.8514041247476393	58259.07669040448
0.8542421384967981	66742.62228903169
0.8570896122917875	78862.50348978442
0.8599465776660935	88400.6106502281
0.8628130662583139	97678.47699994233
0.8656891098125085	107299.98412172147
0.8685747401785502	116874.69575296876
0.8714699893124788	126972.61573375495
0.8743748892768537	139168.61650087067
0.8772894722411099	151898.56354442757
0.8802137704819137	161964.64779815043
0.8831478163835201	168265.50870383903
0.8860916424381319	159967.86371114236
0.8890452812462591	126599.90900178114
0.89200876551708	91474.14109386345
0.8949821280688037	103835.22923109688
0.8979654018290332	119947.95106128258
0.90095861983513	127710.88110886622
0.9039618152345804	190709.54656849676
0.9069750212853626	200869.55684123744
0.9099982713563137	218624.1639886138
0.9130315989275016	264680.91721057607
0.9160750375905932	285049.90853445994
0.9191286210492287	342131.88832742546
0.9221923831193928	441808.98300438403
0.9252663577297908	401760.95231657755
0.9283505789222235	200743.29261196693
0.9314450808519644	102682.7041889451
0.9345498977881376	102356.62702361158
0.9376650641140981	143329.03665162038
0.940790614327812	283601.41566588957
0.9439265830422381	360812.2310337573
0.9470730049857122	347000.9133122236
0.9502299150023314	221858.15279006283
0.9533973480523392	213446.35242645364
0.9565753392125138	221821.61394461268
0.9597639236765556	234390.99848762798
0.9629631367554774	186339.18208886762
0.9661730138779958	313865.05598210596
0.9693935905909224	504144.4197666391
0.972624902559559	596822.90285938
0.9758669855680909	594664.2517191406
0.9791198755199847	631960.36107917
0.9823836084383848	628228.7390102394
0.9856582204665127	794423.5838575072
0.9889437478680678	1021079.754265154
0.9922402270276282	1031730.2611441355
0.9955476944510537	1017082.844602198
0.9988661867658906	1037550.484603065
1.002195740721777	1024485.7936809221
1.0055363931908496	1319767.9796572411
1.0088881811681525	1559801.8901052375
1.0122511417720463	1779550.9377262373
1.01562531224462	1699249.044307336
1.019010729952102	1655784.684374292
1.0224074323852759	1767536.661183359
1.0258154571598936	2187492.291953401
1.0292348420170931	2497434.164260742
1.0326656248238169	2486129.5709966463
1.0361078435732296	2379294.267504147
1.0395615363851405	2788881.045899134
1.0430267415064245	3442711.7287412
1.0465034973114462	3684044.139258897
1.0499918423024843	3676800.591958966
1.0534918151101593	4088641.8659647065
1.05700345449386	4626581.578584393
1.0605267993421728	4967283.612936257
1.0640618886733135	5143149.35548154
1.067608761635558	5135226.068977378
1.0711674575076766	5164732.549675665
1.0747380156993689	4953195.658862076
1.0783204757517002	4602037.856247934
1.0819148773375393	4588602.099848021
1.085521260261998	4344447.854090359
1.0891396644628712	3834994.6104358668
1.092770130011081	2910571.8567661373
1.0964126971111179	1934347.249199356
1.1000674061014886	1539569.1863411767
1.10373429745516	1211486.6951632309
1.1074134117800107	492306.061457695
1.1111047898192774	217869.98591158036
1.1148084724520084	194556.24129669336
1.1185245006935154	205300.65888557487
1.1222529156958272	268883.11771040305
1.1259937587481466	272172.91058911924
1.1297470712773072	255842.497089281
1.1335128948482316	113704.35364090285
1.1372912711643925	166754.27712603583
1.1410822420682738	308263.29272090975
1.1448858495418348	251604.4441748911
1.1487021357069744	122413.6045823006
1.1525311428259977	66276.17053389848
1.1563729133020846	26928.78530738353
1.1602274896797582	25058.386286274286
1.1640949146453576	78215.85176831878
1.1679752310275089	179881.0327171369
1.1718684817976006	116308.73494139677
1.1757747100702594	57672.94694369425
1.1796939591038271	155177.84450351153
1.1836262723008397	224386.97093158474
1.1875716932085094	337778.02043003455
1.1915302655192046	388518.14092628006
1.1955020330709352	536493.5791113408
1.1994870398478386	968677.8354907528
1.2034853299806647	1343901.4025055605
1.207496947747267	1385632.4066158368
1.2115219375730912	1491888.3175375771
1.2155603440316685	1820060.015347477
1.2196122118451074	2358519.607786685
1.2236775858845912	3003333.583185805
1.2277565111708733	3963886.8257870157
1.2318490328747762	4736609.256525007
1.2359551963176922	5430996.635121072
1.2400750469720847	6509255.905593585
1.2442086304619917	7710960.447797748
1.248355992563532	8644081.522082407
1.2525171792054102	8998105.214419223
1.2566922364694284	9902238.012163186
1.2608812105909932	10576411.920194557
1.2650841479596302	10479726.87434587
1.2693010951194956	10436912.521575555
1.273532098769894	10073456.808620531
1.2777772057657937	8737795.992834456
1.2820364631183463	7153351.566667393
1.2863099179954076	5116401.307982434
1.2905976177220593	4330827.481175118
1.2948996097811327	3840648.341301318
1.2992159418137368	3519687.8256683894
1.3035466616197826	2999400.6680478877
1.3078918171585154	2171545.455368145
1.3122514565490437	1233799.8536373274
1.3166256280708741	1307391.0880157645
1.3210143801644436	1465849.8547744628
1.3254177614316587	1144540.60515713
1.329835820636431	569562.6520466212
1.3342686067052192	198387.10242614208
1.33871616872757	67020.53633237962
1.343178555956662	26691.49673767714
1.347655817809851	8960.177064272457
1.352148003869217	6943.651144993639
1.3566551638821147	3276.7512399684347
1.3611773477617217	1267.5741642166502
1.3657146055875944	1262.180519286869
1.3702669876062197	2224.2464646206267
1.3748345442315741	5208.047581213394
1.3794173260456792	7022.079490622596
1.384015383799165	3199.161314977351
1.388628768411829	3557.3768886795037
1.3932575309732018	6597.741570371087
1.3979017227431125	6341.069682858761
1.4025613951522564	11226.592973930277
1.407236599802764	11918.779251126523
1.4119273884687735	13512.26466765659
1.4166338130970026	8787.9470739647
1.4213559258073263	8691.828245454564
1.4260937788933508	14125.46204025718
1.4308474248229952	18523.396880483782
1.4356169162390722	24476.13609658882
1.4404023059598692	51985.364687998015
1.4452036469797356	67396.31031107623
1.450020992469668	68917.41665639447
1.4548543957779003	79231.14884663538
1.4597039104304934	87876.42590410663
1.4645695901319284	107550.2041107612
1.469451488765702	64399.28371927847
1.4743496603949209	25432.257605351206
1.479264159262904	28244.6873222258
1.4841950397937806	30571.10385897219
1.4891423565930935	31194.034459408344
1.4941061644484037	55465.39054712889
1.4990865183298985	120179.86295888375
1.5040834733909982	113937.89075640492
1.5090970849689684	130721.2804115385
1.5141274085855316	79255.52576534092
1.5191744999474837	110979.07854512786
1.5242384149473087	222518.93705463508
1.5293192096638	363732.02723065997
1.5344169403626793	381358.4740811329
1.5395316634972218	447190.93670049444
1.544663435708879	543468.4505928544
1.5498123138279087	818820.1305835212
1.554978354874002	1280191.2067642563
1.5601616160569156	1271598.3837244106
1.5653621547771055	1711097.2203344689
1.5705800286263625	2520816.241220473
1.5758152953884506	3026829.3845139565
1.5810680130397454	3373050.6244607703
1.5863382397498782	3443976.4970213575
1.5916260338823778	3627307.085527669
1.5969314539953192	3092008.057251911
1.6022545588419705	2059491.719219398
1.6075954073714436	1282559.2813310265
1.6129540587293487	750181.946396381
1.6183305722584467	445438.6076273873
1.6237250074993084	267279.2256278116
1.6291374241909726	222079.20333729842
1.6345678822716092	171245.56437099326
1.6400164418791816	115116.72943911071
1.6454831633521123	181262.703560296
1.6509681072299527	245161.16798773775
1.6564713342540527	274463.78975588735
1.6619929053682332	289834.0300445378
1.6675328817194608	144476.24457340967
1.6730913246585257	49719.245263975616
1.6786682957407209	122545.78356866354
1.6842638567265233	179589.74211742406
1.6898780695822784	119617.17460572158
1.6955109964808863	48455.47676745177
1.7011626998024894	53229.61333392807
1.7068332421351646	102807.19058452164
1.7125226862756153	119137.2885863386
1.7182310952298672	145036.1907624234
1.7239585322139668	138408.27107976284
1.7297050606546804	89065.64766909031
1.7354707441901962	97328.58095824391
1.7412556466708302	106934.98183737752
1.747059832159733	162106.41897884253
1.752883364933599	215368.0298420722
1.7587263094833776	162272.9645694993
1.7645887305149892	121056.69392886692
1.7704706929500391	88433.26226082844
1.7763722619265396	111767.6500375444
1.7822935027996283	108117.61859621429
1.7882344811422937	83236.63452476509
1.7941952627461015	49857.91090881533
1.8001759136219222	45992.29747292247
1.8061765000006618	31020.569125727114
1.8121970883339975	36386.31901236814
1.818237745295111	64011.71454419204
1.8242985377794283	86032.0782244982
1.8303795329053596	35375.7168591187
1.8364807980150446	15570.53597004698
1.8426024006750947	31446.30088579637
1.8487444086773455	55305.02874267702
1.8549068900396033	52526.9232462348
1.861089913006402	19856.165073622025
1.8672935460497566	11404.707671924609
1.873517857869923	15394.025540879964
1.879762917396156	52091.13011987412
1.8860287937874767	92924.77165017059
1.8923155564334353	124378.57755989215
1.8986232749548801	111956.12928350057
1.9049520192047298	51153.51957249962
1.9113018592687456	46589.89716551378
1.9176728654663082	25985.6527375952
1.9240651083511964	23006.69659408379
1.9304786587123668	12467.077438664313
1.9369135875747419	5020.389324901128
1.9433699661999908	8951.206521139931
1.9498478660873244	9899.81328758439
1.9563473589742824	14139.913422648817
1.9628685168375302	33403.19756292924
1.9694114118936552	55716.625289898104
1.9759761165999676	73608.80898866215
1.9825627036553009	93592.42127691064
1.9891712460008188	118559.67307373852
1.9958018168208218	133403.85728931034
2.002454489543558	133415.489479724
2.0091293378420367	132651.61455376886
2.0158264356348434	115911.66448710891
2.02254585708696	80789.23229756564
2.029287676610583	132101.5634141522
2.036051968865952	174862.22908484613
2.042838808762172	211566.69099258797
2.049648271458046	237684.24026804144
2.0564804323629065	284209.8291273483
2.0633353671374497	365943.81956178695
2.0702131516945745	478104.19731676864
2.0771138622002234	450655.75164535514
2.084037575074224	435002.24037023826
2.0909843669911385	436669.81752359256
2.097954314881109	437518.5967624191
2.1049474959307126	474801.07342474035
2.1119639875838154	492965.5639458014
2.1190038675424283	451930.90429896506
2.12606721376757	425516.2173411755
2.1331541044801288	394834.3300257248
2.140264618161729	345150.6355735463
2.147398833555602	302633.25302167324
2.154556829667454	245817.42437008952
2.1617386857663456	196399.80310407112
2.1689444813855667	174332.03823683196
2.176174296323519	146920.5258943484
2.1834282106445975	120429.81515801176
2.19070630468008	59103.16055757836
2.1980086590290138	13829.774623193742
2.2053353545591103	13174.066698514505
2.2126864724076407	31911.669178704266
2.220062093982333	24497.358213138094
2.2274623009622747	14136.486530898768
2.2348871752988155	10001.328136603208
2.2423367992164787	7000.911610632153
2.2498112552138667	5087.021477571933
2.25731062606458	4516.679216484701
2.2648349948181288	2560.292188467014
2.272384444800856	3006.2795346198955
2.2799590596168593	5375.405527372554
2.2875589231489153	5319.416065104692
2.295184119559412	4633.6807575091325
2.302834733291277	11759.545524697092
2.3105108490689146	21888.71635277459
2.3182125518991445	10656.205744086143
2.325939927072142	3867.5806577637422
2.3336930601623824	4008.969443042207
2.341472037029591	1686.1957785811019
2.3492769438196897	2833.538019807271
2.3571078669657557	10188.174992954484
2.364964893188975	14212.250766821233
