#wavelength	surface_flux
0.6450077295303345	65060.19344085529
0.6472567915916443	104909.09062674246
0.6494921445846558	142477.87925640726
0.6517150402069092	171435.10522540694
0.6539263725280762	204057.6595314192
0.6561272740364075	241054.2544946796
0.6583186388015747	282533.7093536743
0.6605015397071838	329663.17829655565
0.6626768708229065	382457.64650018484
0.6648455858230591	440372.9412430786
0.6670085787773132	501851.62492809125
0.6691668033599854	561302.1117605164
0.6713210344314575	625748.5430731731
0.6734722256660461	706936.8086626937
0.6756211519241333	788816.954382446
0.6777685880661011	856678.7619373288
0.6799154281616211	912260.1665826341
0.6820623278617859	949057.2878304484
0.6842101216316223	959830.3457585553
0.6863595843315125	940284.127550966
0.688511312007904	889664.6991502355
0.6906660795211792	827321.3761905654
0.6928245425224304	775881.3434097918
0.6949873566627502	744039.1939051901
0.6971551775932312	734204.4737108746
0.6993286609649658	750504.3166057201
0.7015084028244019	793616.1186005443
0.7036949396133423	843456.4310081949
0.7058889269828796	878844.3624593763
0.7080909013748169	899485.4702102478
0.710301399230957	918457.7049523218
0.712520956993103	939539.0752928632
0.7147500514984131	950104.5634965716
0.7169892191886902	943904.3377166765
0.7192389369010925	927024.011693536
0.7214996814727783	903120.1993246846
0.723771870136261	872162.5850173004
0.7260559797286987	834378.6671337173
0.7283523678779602	792020.2224388487
0.7306615710258484	744568.0059441791
0.7329838871955872	691553.6742211552
0.7353196740150452	641972.3944531075
0.7376693487167358	597677.082482206
0.7400332689285278	549382.1811584436
0.7424117922782898	504396.5465349999
0.7448052167892456	472632.52944829693
0.7472138404846191	445045.11609293276
0.7496379613876343	409624.7272801276
0.7520779371261597	367316.05764697643
0.7545340061187744	316208.73428530723
0.7570064663887024	247644.4623678117
0.7594954967498779	165572.61387843703
0.7620013952255249	84702.57486176783
0.7645244002342224	28700.66159282592
0.7670646905899048	6873.037955797052
0.7696225643157959	6982.910362306658
0.7721980810165405	30004.513101522236
0.7747915983200073	92461.27347813535
0.7774031162261963	174817.4306912043
0.7800329327583313	257366.00518713653
0.7826811671257019	387782.8798116953
0.7853479981422424	561283.8380482056
0.7880334854125977	736466.8244256104
0.7907378077507019	899261.157599124
0.7934610247612	1013441.7057771741
0.7962033748626709	1227291.693222143
0.7989648580551147	1636246.6061603047
0.801745593547821	2052177.3600415569
0.8045456409454346	2415439.734236903
0.8073651194572449	2783730.6199839166
0.8102040886878967	3169392.5160993524
0.8130625486373901	3585486.30432281
0.8159406185150146	4028010.434661298
0.8188382983207703	4494669.309887072
0.8217556476593018	4992692.6912224265
0.8246926665306091	5527872.931388953
0.8276493549346924	6083928.593081651
0.8306257724761963	6633605.816366823
0.8336219191551208	7181503.009096268
0.8366377949714661	7750917.934779568
0.8396733403205872	8360109.353288854
0.8427285552024841	8996318.240707004
0.8458034992218018	9590427.651648186
0.8488980531692505	9843052.270546949
0.8520121574401855	9853192.585312102
0.8551458716392517	10611884.022975957
0.8582990765571594	11637195.188836606
0.8614717125892639	11837559.233378006
0.8646637797355652	11967676.222872684
0.8678751587867737	12615617.488580056
0.8711057901382446	13390486.563904177
0.8743556141853333	14174210.484811464
0.87762451171875	15057177.239375634
0.8809124231338501	15963629.975464368
0.8842192888259888	16872194.835796624
0.8875449895858765	17678277.463217244
0.8908893465995789	17852761.431414712
0.894252359867096	17637531.559721746
0.8976338505744934	18622227.009986147
0.9010337591171265	20414049.293893307
0.9044519662857056	21666139.2835514
0.9078882932662964	22480143.38878519
0.9113426208496094	23099374.194572363
0.914814829826355	23679515.349359103
0.9183048605918884	24345893.229150202
0.9218124747276306	24832611.952449974
0.925337553024292	23837591.689585805
0.9288799166679382	21484577.708393704
0.9324395060539246	20681829.667743154
0.9360161423683167	22356851.541238036
0.9396095871925354	24583651.09605841
0.943219780921936	25724178.018773448
0.9468464851379395	25911902.322773505
0.9504896402359009	26211691.554084074
0.9541489481925964	26678629.696559787
0.9578243494033813	27036942.589262646
0.9615156054496765	27644874.01217015
0.9652225375175476	28823531.463033397
0.9689450263977051	30216256.220831774
0.9726828336715698	31449544.011642646
0.9764357805252075	32589567.280546516
0.9802037477493286	33752378.048858635
0.983986496925354	34916493.77822667
0.9877838492393494	36000090.68195182
0.9915955662727356	36816068.55184107
0.9954215884208679	37370389.07377711
0.9992615580558777	37779627.16489485
1.0031154155731201	38478272.58764445
1.0069829225540161	39686081.30742087
1.0108637809753418	40973006.025101624
1.0147579908370972	42100104.58943895
1.018665075302124	43099460.685430676
1.022585153579712	44024034.44647262
1.0265177488327026	44887060.665593445
1.0304628610610962	45760056.354396924
1.0344202518463135	46664110.91161019
1.0383895635604858	47529748.1502051
1.0423706769943237	48321771.338050336
1.0463634729385376	49051002.30179238
1.0503677129745483	49736467.82152764
1.0543830394744873	50398461.28446361
1.058409333229065	51071228.24236697
1.0624464750289917	51780703.22350963
1.0664942264556885	52494673.07155611
1.0705522298812866	53202986.516316086
1.0746204853057861	53928669.76517126
1.0786986351013184	54635435.81823503
1.0827864408493042	55217770.649960786
1.086883783340454	55327109.40510973
1.0909905433654785	54439819.5567371
1.0951062440872192	52519047.566757426
1.0992310047149658	50021795.11936447
1.10336434841156	47131595.08935358
1.1075061559677124	43792120.06934971
1.1116561889648438	40484251.66558102
1.115814208984375	38492251.391886346
1.1199802160263062	38086467.295542225
1.124153733253479	38823425.51659045
1.1283347606658936	39207210.9083905
1.1325229406356812	36996104.76299048
1.1367181539535522	37025005.35309436
1.1409201622009277	41146257.026391275
1.145128846168518	42916691.675442666
1.1493438482284546	41390067.091567345
1.1535650491714478	38697636.62327888
1.1577922105789185	37009880.26965578
1.1620250940322876	36573266.94995831
1.1662636995315552	37160082.00623171
1.170507550239563	40038202.67485542
1.174756646156311	43738263.51284374
1.1790107488632202	47715298.049123414
1.1832695007324219	52191618.3261683
1.1875330209732056	55962319.37856426
1.191800832748413	59469429.1277407
1.1960728168487549	63030432.60325192
1.2003488540649414	65828831.64209437
1.2046287059783936	68145262.4025458
1.2089121341705322	70173606.61227757
1.2131990194320679	71924541.93426186
1.2174891233444214	73535468.43476778
1.2217823266983032	74895275.24343675
1.2260783910751343	76123987.30167568
1.230377197265625	77302180.91547325
1.2346785068511963	78333224.92268357
1.238982081413269	79170901.80154096
1.2432878017425537	79895646.7813724
1.2475954294204712	80713663.25671406
1.2519049644470215	81434267.77827051
1.256216049194336	82370936.99145654
1.2605286836624146	83443176.42668562
1.2648425102233887	84081832.98490651
1.2691574096679688	84467075.79089789
1.2734732627868652	84690975.79268648
1.2777899503707886	84788886.0246769
1.2821072340011597	84624487.98713988
1.2864248752593994	84128013.92594507
1.2907428741455078	83691280.62316124
1.2950609922409058	83601263.76439388
1.2993791103363037	83636546.59525645
1.303696870803833	83499883.76434952
1.3080145120620728	82903034.57598819
1.3123314380645752	81791315.91357628
1.3166478872299194	81086059.57445574
1.3209635019302368	80101974.36367929
1.3252781629562378	74733681.32347625
1.3295916318893433	60318173.27292009
1.3339040279388428	40507201.13124063
1.3382149934768677	25298083.516365968
1.3425244092941284	17519023.923349645
1.3468321561813354	13592897.845422238
1.3511382341384888	10979067.5076866
1.3554422855377197	9295012.8978639
1.3597444295883179	9335571.077302134
1.3640443086624146	11141980.838665714
1.3683418035507202	12474130.057715217
1.3726370334625244	13156869.74412374
1.3769296407699585	14837477.741986327
1.381219506263733	15444929.903368048
1.3855066299438477	14593326.441699741
1.3897908926010132	14026804.927157165
1.3940720558166504	13219183.301392606
1.3983501195907593	12505746.31265995
1.4026249647140503	12643305.089825397
1.4068963527679443	12601356.130751098
1.4111642837524414	12101233.793895768
1.4154287576675415	12137640.854543002
1.419689416885376	12113163.444660285
1.4239463806152344	12117695.086556504
1.4281994104385376	13484822.18874157
1.4324485063552856	15391354.531608375
1.436693549156189	16614726.326232197
1.440934419631958	17618715.399713833
1.4451709985733032	19180259.199530013
1.449403166770935	22449052.634246398
1.453631043434143	26289293.46532647
1.4578542709350586	29001919.64721843
1.4620729684829712	30270340.84741087
1.4662868976593018	30488880.76309583
1.4704961776733398	30995446.545221932
1.4747005701065063	32820535.508133274
1.4788999557495117	35249319.527255595
1.4830944538116455	37148714.58409411
1.4872838258743286	38712051.30107554
1.491468071937561	40420160.30395604
1.4956470727920532	42861690.07600623
1.4998208284378052	45773193.801206745
1.5039892196655273	48880445.74115291
1.5081522464752197	51985784.37879713
1.5123097896575928	55181865.7919555
1.5164618492126465	58414883.97812298
1.5206083059310913	61976197.85646739
1.5247491598129272	65887246.57671682
1.5288842916488647	69314352.56490156
1.5330137014389038	72741022.07605667
1.5371372699737549	76445546.14470404
1.541254997253418	79823071.6074648
1.545366883277893	83268848.73333871
1.5494728088378906	86458347.64064586
1.5535727739334106	88738502.84721926
1.5576666593551636	90567635.37144935
1.561754584312439	92506454.32228503
1.5658363103866577	94686562.51211414
1.5699119567871094	96560691.90956247
1.5739814043045044	97809151.9296619
1.5780447721481323	98443282.17649527
1.582101821899414	98930203.38235816
1.5861525535583496	99509883.9917892
1.5901970863342285	99731333.21671504
1.5942351818084717	99669172.43002501
1.5982669591903687	99668219.73893315
1.6022924184799194	99182226.53229688
1.606311559677124	98076165.29616131
1.6103241443634033	96848372.93514417
1.6143304109573364	95274704.6618193
1.6183301210403442	93943025.5962663
1.6223233938217163	95172599.58233252
1.6263102293014526	97138055.09137146
1.6302905082702637	96297179.26942942
1.634264349937439	94166153.81120287
1.638231635093689	92905012.49661438
1.6421923637390137	91986913.38200542
1.646146535873413	91421165.3860804
1.6500942707061768	92131872.08517155
1.6540353298187256	92077593.94404314
1.6579699516296387	90206482.35430998
1.661897897720337	88347808.0351594
1.6658192873001099	84626840.74616571
1.6697341203689575	80581312.40723921
1.6736423969268799	82105323.69921847
1.677544116973877	86648042.66328625
1.6814392805099487	86717154.03571008
1.6853278875350952	81327125.49100313
1.6892099380493164	76107701.11601982
1.6930854320526123	73880072.89114456
1.696954369544983	73284570.0471843
1.7008168697357178	74457181.30095378
1.7046726942062378	76013229.38679782
1.708522081375122	75716881.15687446
1.712364912033081	74535666.65151449
1.7162011861801147	73205553.880739
1.7200311422348022	70619240.58301783
1.723854422569275	66877719.32496721
1.7276713848114014	64397469.06125266
1.731481909751892	63094921.81648912
1.7352858781814575	60509332.42819695
1.7390835285186768	56680125.300949305
1.7428747415542603	52861229.01912882
1.7466596364974976	49548704.76453947
1.7504380941390991	47015182.054772414
1.7542102336883545	44117690.887157544
1.7579760551452637	41996902.90765214
1.7617355585098267	41430502.72071416
1.7654887437820435	39082335.261747465
1.7692357301712036	34756374.51815192
1.7729763984680176	31060286.023019355
1.776710867881775	28756923.625882767
1.7804391384124756	27221908.005322587
1.7841613292694092	24908396.48613064
1.7878772020339966	23479289.24780494
1.7915871143341064	22919927.344330315
1.7952908277511597	22098164.123203512
1.7989884614944458	21084450.464903347
1.8026801347732544	18731212.42323035
1.806365728378296	17528787.48861325
1.8100452423095703	18477952.004650496
1.8137187957763672	20002827.865687467
1.817386507987976	19231906.625269607
1.8210482597351074	18618948.796751678
1.8247040510177612	20546598.778772216
1.828354001045227	19921418.454441365
1.8319982290267944	17717436.878095053
1.8356364965438843	16592488.85000754
1.8392690420150757	16106675.466014234
1.8428958654403687	16108785.848764654
1.8465168476104736	15430742.460018832
1.8501322269439697	15196174.182432963
1.8537418842315674	14924474.217622664
1.8573459386825562	12948633.17257292
1.860944390296936	11247684.781058747
1.864537239074707	10935609.663174786
1.8681244850158691	11324456.079045579
1.871706247329712	12499249.91290905
1.8752825260162354	14751695.543358041
1.8788533210754395	17869319.56675665
1.8824186325073242	20557114.723051928
1.8859784603118896	21553810.909031138
1.8895330429077148	21649129.19228075
1.8930821418762207	23335158.87707484
1.8966259956359863	25319501.092757203
1.9001644849777222	24499165.6958395
1.9036977291107178	23227075.101066906
1.9072256088256836	23987642.17816156
1.9107483625411987	24177375.81174833
1.9142658710479736	23596373.427622646
1.9177782535552979	23976106.660618037
1.9212853908538818	22879857.762764823
1.9247875213623047	20930878.431998327
1.9282845258712769	19656244.7049341
1.9317764043807983	18209910.012403432
1.9352631568908691	16703798.882134182
1.9387450218200684	14958814.579203047
1.942221760749817	14996105.260202426
1.9456936120986938	16647992.257502377
1.9491604566574097	17605205.495029476
1.952622413635254	17457009.81121644
1.956079363822937	16661009.316025948
1.959531545639038	16710546.400579408
1.962978720664978	17523845.337436937
1.966421127319336	18877145.107352108
1.9698586463928223	19649467.183042176
1.9732913970947266	19121449.266716167
1.9767193794250488	19402253.16281986
1.9801424741744995	20353161.114909086
1.9835609197616577	21736068.09151361
1.9869745969772339	22679965.14708664
1.990383505821228	21966668.206285805
1.9937876462936401	22927533.185685802
1.9971871376037598	24463561.073045008
2.000581979751587	25322527.23732798
2.003972291946411	26938618.087956563
2.007357597351074	27095975.805382293
2.0107386112213135	27581628.518782172
2.0141148567199707	29408724.50458492
2.017486572265625	29934261.93618254
2.0208535194396973	31794757.370080527
2.0242159366607666	34072415.874043584
2.027573823928833	33487581.50313885
2.0309269428253174	34096297.17394314
2.034275770187378	36882185.80097413
2.0376198291778564	38282389.238665104
2.040959596633911	38362366.88805089
2.044294595718384	39429465.73068068
2.0476250648498535	41189618.05737499
2.0509510040283203	41469401.930354066
2.054272413253784	41670372.37507097
2.057589530944824	43766672.22621751
2.0609018802642822	44772373.03914012
2.0642096996307373	44506629.53036424
2.0675129890441895	45259648.93434062
2.0708119869232178	45692124.322769135
2.074106216430664	45405234.34064034
2.0773961544036865	45515103.53764506
2.080681324005127	45998787.051762916
2.0839622020721436	46375907.46309587
2.087238311767578	46610916.202134594
2.090510129928589	46805119.317890964
2.0937774181365967	46772857.340171434
2.0970399379730225	46702396.76431829
2.1002981662750244	46619812.17809366
2.1035518646240234	46309796.72946725
2.1068007946014404	46187662.13718889
2.1100454330444336	46262894.42427092
2.1132853031158447	46247426.99336773
2.116520881652832	45862778.63873815
2.1197516918182373	45551360.64864856
2.1229779720306396	45713340.801904336
2.12619948387146	45629500.24733516
2.1294167041778564	45161534.68419863
2.132629156112671	44980824.35337137
2.1358368396759033	44839482.46735625
2.139039993286133	44227099.4400222
2.1422386169433594	43662123.67024598
2.145432472229004	43441235.362404004
2.1486217975616455	43163668.3293883
2.151806354522705	42783834.0124017
2.1549863815307617	42548826.614867136
2.1581614017486572	42300137.427901074
2.16133189201355	41932605.54217645
2.1644976139068604	41531979.543793574
2.167658567428589	41103090.151194684
2.1708147525787354	40634053.88661464
2.173966407775879	40059085.28552543
2.1771130561828613	39446675.08407946
2.1802549362182617	38986601.993071966
2.183391809463501	38470651.215156846
2.1865241527557373	37725387.937481344
2.1896514892578125	36843714.51436602
2.1927738189697266	35621625.30040288
2.1958916187286377	33738467.09463225
2.1990041732788086	31436841.548614938
2.2021119594573975	29320555.334652707
2.2052149772644043	27998132.379116192
2.208312749862671	28029974.72621722
2.2114057540893555	29095826.42785833
2.214493751525879	30256685.220648963
2.217576742172241	30643902.21559917
2.2206547260284424	30322714.014766112
2.2237277030944824	30158050.86812484
2.2267956733703613	29817271.431772016
2.2298583984375	29221372.53886248
2.2329163551330566	28834556.379339553
2.235969066619873	28422828.312780097
2.2390167713165283	27676866.50537784
2.2420592308044434	26656578.228855357
2.2450966835021973	25890507.652860075
2.248128890991211	25570703.483460914
2.2511560916900635	25522322.066878024
2.254178285598755	25432687.078236874
2.257194995880127	25316339.868458845
2.260206699371338	25277253.185733378
2.2632133960723877	25002441.189373583
2.266214609146118	24548802.224769
2.2692108154296875	24206689.845922753
2.2722020149230957	24120831.951627497
2.2751877307891846	24126519.24207482
2.278168201446533	23840277.057340298
2.2811436653137207	23251794.198871825
2.284113883972168	22744882.313822493
2.287078857421875	22379963.451015078
2.290038824081421	21562820.04653222
2.2929933071136475	20494945.160994735
2.295942783355713	19827207.00709739
2.298887014389038	19790341.836726096
2.301826238632202	20306385.79368744
2.304760217666626	20947683.295139797
2.3076889514923096	21559691.764975317
2.310612440109253	22035616.67951293
2.3135311603546143	21510276.562089738
2.3164443969726562	19123682.748720203
2.319352865219116	16980901.229404237
2.322256088256836	16505698.7546715
2.3251543045043945	16567623.926115425
2.328047275543213	16667662.380932802
2.330935478210449	16670925.677315822
2.3338186740875244	16879744.227479264
2.3366971015930176	17221622.27917455
2.3395702838897705	17120358.16670646
2.3424389362335205	16814063.439995527
2.3453025817871094	16891571.99423467
2.348161458969116	17270405.923593886
2.351015567779541	17384978.054400157
2.353865146636963	17751681.697493754
2.3567099571228027	18389310.447411902
2.3595502376556396	18850843.921641693
2.3623859882354736	19485994.482187953
2.3652172088623047	19861235.302757107
2.368043899536133	18652820.87744815
2.370866537094116	16229605.003335545
2.3736846446990967	15754050.413613455
2.3764986991882324	16610232.180847585
2.3793084621429443	16506030.234981945
2.3821144104003906	15969520.805382753
2.384916305541992	15951037.65180886
2.387714147567749	16921490.324940506
2.3905084133148193	18026520.070258837
2.393299102783203	18382014.25387122
2.3960859775543213	18494932.649238665
2.398869514465332	18938082.913275525
2.4016497135162354	19082074.376685716
2.4044265747070312	18870705.104625933
2.407200336456299	18413459.439343087
2.409970998764038	18287805.519288454
2.4127390384674072	18551994.723943092
2.415503978729248	18058013.593811005
2.418266534805298	17488372.2272514
2.4210267066955566	17892374.574108377
2.4237842559814453	18250565.539907437
2.426539897918701	17878554.96274289
2.429293394088745	17802000.008025378
2.4320452213287354	17651266.427714076
2.4347951412200928	16448384.147297865
2.4375438690185547	16436630.88522031
2.440291166305542	17489783.001052283
2.443037271499634	16641695.663466202
2.445782423019409	15147776.556753356
2.4485268592834473	14992943.426566705
2.451270818710327	14419565.122517545
2.454014539718628	13776046.624536967
2.4567582607269287	15326305.164998475
2.4595019817352295	15522906.686616037
2.4622461795806885	14839212.71398835
2.4649908542633057	15229629.134741273
2.4677364826202393	13738735.592740057
2.4704833030700684	11943580.28538563
2.473231554031372	10980322.437277444
2.4759814739227295	10735726.199758563
2.4787333011627197	11248079.542496802
2.481487512588501	11530064.686977874
