#wavelength	surface_flux
0.6450077295303345	413.9995181907076
0.6472567915916443	680.9173874054815
0.6494921445846558	955.7518324610049
0.6517150402069092	1196.5324157622795
0.6539263725280762	1492.6286177267111
0.6561272740364075	1845.148560146967
0.6583186388015747	2263.3045121943996
0.6605015397071838	2810.669070469931
0.6626768708229065	3519.5526751596526
0.6648455858230591	4383.8538527027795
0.6670085787773132	5396.6716976204025
0.6691668033599854	6519.208396501354
0.6713210344314575	7784.847364626019
0.6734722256660461	9362.772943708434
0.6756211519241333	11148.474835718207
0.6777685880661011	12844.266933411262
0.6799154281616211	14422.21342019615
0.6820623278617859	15636.200418550861
0.6842101216316223	16267.26952863948
0.6863595843315125	16263.172757963534
0.688511312007904	15481.929727090706
0.6906660795211792	14042.227291590127
0.6928245425224304	12582.51904439646
0.6949873566627502	11892.528695559144
0.6971551775932312	11784.107516989909
0.6993286609649658	12068.200710576246
0.7015084028244019	13118.137035134181
0.7036949396133423	14379.459751699722
0.7058889269828796	15072.782346542415
0.7080909013748169	15143.670850143395
0.710301399230957	15191.95721951434
0.712520956993103	15562.409221677999
0.7147500514984131	15454.065459935715
0.7169892191886902	14633.278506654473
0.7192389369010925	13876.911901627365
0.7214996814727783	13417.229028074202
0.723771870136261	12944.179014921689
0.7260559797286987	12184.244236965615
0.7283523678779602	11230.613044483296
0.7306615710258484	10351.132907204545
0.7329838871955872	9509.385306083654
0.7353196740150452	8686.534736101026
0.7376693487167358	7927.822498649754
0.7400332689285278	7173.718393038373
0.7424117922782898	6522.033734426097
0.7448052167892456	5981.085322073113
0.7472138404846191	5454.968786172919
0.7496379613876343	4891.342218495341
0.7520779371261597	4308.995140183383
0.7545340061187744	3763.7794964857153
0.7570064663887024	3271.495716310438
0.7594954967498779	2888.437923281095
0.7620013952255249	2466.073477653956
0.7645244002342224	1864.710393428475
0.7670646905899048	1382.607198463849
0.7696225643157959	1378.127997490111
0.7721980810165405	1885.5715809004587
0.7747915983200073	2869.4154284424526
0.7774031162261963	4046.584093738421
0.7800329327583313	5311.322817910788
0.7826811671257019	7267.889771375463
0.7853479981422424	9986.298130956407
0.7880334854125977	13302.051948807499
0.7907378077507019	17058.614333849448
0.7934610247612	20588.01891531441
0.7962033748626709	26685.38452756219
0.7989648580551147	37394.27290778123
0.801745593547821	49621.22040651225
0.8045456409454346	62175.664563477345
0.8073651194572449	75917.13295225186
0.8102040886878967	90615.97910875334
0.8130625486373901	107984.31339256412
0.8159406185150146	131449.3962694742
0.8188382983207703	160333.1798784467
0.8217556476593018	191251.4231680829
0.8246926665306091	227091.73320275158
0.8276493549346924	268465.9575837742
0.8306257724761963	311559.82852401416
0.8336219191551208	360421.2612853389
0.8366377949714661	417498.04393605975
0.8396733403205872	480299.16805712454
0.8427285552024841	549867.4609101113
0.8458034992218018	624594.8424621482
0.8488980531692505	681208.7623183023
0.8520121574401855	729098.7274450038
0.8551458716392517	846665.8413844217
0.8582990765571594	1005929.2040308808
0.8614717125892639	1134163.3089437545
0.8646637797355652	1252281.318502458
0.8678751587867737	1377762.5714742704
0.8711057901382446	1509172.263144699
0.8743556141853333	1641894.008212921
0.87762451171875	1773013.5661603177
0.8809124231338501	1905706.86499821
0.8842192888259888	2040948.908685291
0.8875449895858765	2132050.3631823054
0.8908893465995789	2074593.920610459
0.894252359867096	1967657.1289856893
0.8976338505744934	2093914.8639893532
0.9010337591171265	2386694.8201417224
0.9044519662857056	2630635.534585254
0.9078882932662964	2770264.271883066
0.9113426208496094	2810372.3535050275
0.914814829826355	2817937.9859229224
0.9183048605918884	2895864.090392883
0.9218124747276306	2981405.410822157
0.925337553024292	2719222.3303714716
0.9288799166679382	2166054.360597769
0.9324395060539246	1890360.4297358799
0.9360161423683167	2000096.9368199639
0.9396095871925354	2265506.531526479
0.943219780921936	2540319.1275738934
0.9468464851379395	2693043.281607783
0.9504896402359009	2744492.433549768
0.9541489481925964	2789191.542961344
0.9578243494033813	2831716.671864793
0.9615156054496765	2946352.3976650173
0.9652225375175476	3196906.825394052
0.9689450263977051	3472595.6756040095
0.9726828336715698	3691597.5655762553
0.9764357805252075	3906588.671952905
0.9802037477493286	4147997.703272514
0.983986496925354	4404587.439108679
0.9877838492393494	4738586.327108412
0.9915955662727356	5113252.667808365
0.9954215884208679	5471082.554161683
0.9992615580558777	5839322.477597532
1.0031154155731201	6220082.629348038
1.0069829225540161	6602589.267694401
1.0108637809753418	6975004.003684163
1.0147579908370972	7322146.889225657
1.018665075302124	7636857.844281563
1.022585153579712	7920191.958045963
1.0265177488327026	8182702.579363097
1.0304628610610962	8434040.688943397
1.0344202518463135	8677327.70396008
1.0383895635604858	8907516.654736415
1.0423706769943237	9118330.160768006
1.0463634729385376	9314202.441806262
1.0503677129745483	9507879.569058979
1.0543830394744873	9696452.925894115
1.058409333229065	9870574.146449974
1.0624464750289917	10049944.224746674
1.0664942264556885	10228233.219288828
1.0705522298812866	10391084.014361998
1.0746204853057861	10564995.290173227
1.0786986351013184	10739416.471451875
1.0827864408493042	10838283.725543374
1.086883783340454	10649363.888378078
1.0909905433654785	9904914.003992887
1.0951062440872192	8794030.082470853
1.0992310047149658	7880192.794534365
1.10336434841156	7313850.789875285
1.1075061559677124	6816994.279410939
1.1116561889648438	6159258.837343321
1.115814208984375	5519422.9206666555
1.1199802160263062	5238943.638386188
1.124153733253479	5408919.090488105
1.1283347606658936	5539971.856262331
1.1325229406356812	5073617.844445474
1.1367181539535522	5003880.588797807
1.1409201622009277	5728560.267556456
1.145128846168518	6103765.892884435
1.1493438482284546	5982765.000766206
1.1535650491714478	5637910.674179033
1.1577922105789185	5437128.039660165
1.1620250940322876	5441506.276494938
1.1662636995315552	5533166.158146556
1.170507550239563	6075244.464972664
1.174756646156311	6846865.166221037
1.1790107488632202	7723907.755320022
1.1832695007324219	8713402.862127488
1.1875330209732056	9638626.418583978
1.191800832748413	10817754.341141047
1.1960728168487549	12131422.208564349
1.2003488540649414	13203768.53586527
1.2046287059783936	14164005.044837896
1.2089121341705322	15018426.941386193
1.2131990194320679	15808759.259198172
1.2174891233444214	16650780.3813237
1.2217823266983032	17406608.70037291
1.2260783910751343	18150534.35358492
1.230377197265625	18959683.37340597
1.2346785068511963	19702264.827518597
1.238982081413269	20383651.37612647
1.2432878017425537	21034408.140278284
1.2475954294204712	21646770.615079492
1.2519049644470215	22101131.436018124
1.256216049194336	22545378.537657596
1.2605286836624146	22948307.272711422
1.2648425102233887	23081622.98245188
1.2691574096679688	23062450.841601685
1.2734732627868652	22961747.114373174
1.2777899503707886	22812009.016210385
1.2821072340011597	22491400.706733387
1.2864248752593994	21954779.25626324
1.2907428741455078	21500377.389874324
1.2950609922409058	21389757.63065909
1.2993791103363037	21371549.529099785
1.303696870803833	21191715.555497587
1.3080145120620728	20915775.86853776
1.3123314380645752	20362146.44351739
1.3166478872299194	19678912.112805285
1.3209635019302368	18885932.119728528
1.3252781629562378	16957579.63194888
1.3295916318893433	12636229.63417355
1.3339040279388428	7392387.737028867
1.3382149934768677	4106216.1576188747
1.3425244092941284	2630843.108170779
1.3468321561813354	1773936.9559512637
1.3511382341384888	1276293.3464757334
1.3554422855377197	977520.9906919474
1.3597444295883179	887414.2364289156
1.3640443086624146	1068085.6071644656
1.3683418035507202	1217361.4038580942
1.3726370334625244	1219679.3545448624
1.3769296407699585	1341870.6125221516
1.381219506263733	1455541.5631363685
1.3855066299438477	1477454.6654257705
1.3897908926010132	1516792.111442751
1.3940720558166504	1461706.2532386016
1.3983501195907593	1371865.3106246912
1.4026249647140503	1348046.6371153176
1.4068963527679443	1273007.0791932843
1.4111642837524414	1210583.1651982078
1.4154287576675415	1216010.5998335727
1.419689416885376	1151403.824698057
1.4239463806152344	1128179.7347462869
1.4281994104385376	1312477.4260302158
1.4324485063552856	1522748.1190024107
1.436693549156189	1654928.6703737227
1.440934419631958	1813286.2950770394
1.4451709985733032	2060901.0202315962
1.449403166770935	2606639.559306006
1.453631043434143	3290511.5843344326
1.4578542709350586	3747439.269265012
1.4620729684829712	3962166.8587383344
1.4662868976593018	3998552.5626178975
1.4704961776733398	3970599.8715332136
1.4747005701065063	4232357.277103431
1.4788999557495117	4749041.830080812
1.4830944538116455	5184458.077271713
1.4872838258743286	5565925.710184412
1.491468071937561	5902272.045095298
1.4956470727920532	6351059.192076808
1.4998208284378052	6900508.8504259605
1.5039892196655273	7452075.0633843085
1.5081522464752197	8243018.916463099
1.5123097896575928	9322823.996886596
1.5164618492126465	10182415.624720143
1.5206083059310913	10891991.209045555
1.5247491598129272	11893646.894023899
1.5288842916488647	12925287.89436094
1.5330137014389038	13921844.184526175
1.5371372699737549	15157653.984259944
1.541254997253418	16707501.423838826
1.545366883277893	18447718.429650012
1.5494728088378906	19940018.032913532
1.5535727739334106	20678468.252579704
1.5576666593551636	20490281.811746668
1.561754584312439	21012251.25488494
1.5658363103866577	23237305.961758707
1.5699119567871094	25695613.14748409
1.5739814043045044	27382165.846382607
1.5780447721481323	27681535.726612173
1.582101821899414	27954033.31696947
1.5861525535583496	29524596.044986673
1.5901970863342285	31061582.835510127
1.5942351818084717	32027312.471113097
1.5982669591903687	32766566.248658966
1.6022924184799194	33211435.093350947
1.606311559677124	33586792.54710749
1.6103241443634033	34033529.248022474
1.6143304109573364	34324757.52467092
1.6183301210403442	34566709.49248225
1.6223233938217163	35685185.56579887
1.6263102293014526	36926952.30031652
1.6302905082702637	36732454.7708187
1.634264349937439	36114909.09145951
1.638231635093689	36091092.22624081
1.6421923637390137	36064524.11138855
1.646146535873413	35971334.43605955
1.6500942707061768	36255659.34906814
1.6540353298187256	36146682.343690515
1.6579699516296387	35181840.3349874
1.661897897720337	34199658.32590408
1.6658192873001099	32938225.628742155
1.6697341203689575	31727589.389242835
1.6736423969268799	32490426.213375118
1.677544116973877	34587309.03102159
1.6814392805099487	35043931.018661186
1.6853278875350952	32853089.47952723
1.6892099380493164	30210490.203607973
1.6930854320526123	28718004.88424885
1.696954369544983	27911449.749540005
1.7008168697357178	28002473.237669572
1.7046726942062378	28213025.199463643
1.708522081375122	27282099.366320394
1.712364912033081	25671939.607249428
1.7162011861801147	23753525.742431294
1.7200311422348022	21807698.866826642
1.723854422569275	20272972.58977053
1.7276713848114014	19289364.213925675
1.731481909751892	18490139.295048527
1.7352858781814575	17464789.268705115
1.7390835285186768	16378232.037703935
1.7428747415542603	15182738.910570523
1.7466596364974976	13845478.863559632
1.7504380941390991	12958702.404532963
1.7542102336883545	12341413.6437613
1.7579760551452637	11969395.164676169
1.7617355585098267	11775308.729433682
1.7654887437820435	10661359.756301718
1.7692357301712036	8884720.644413782
1.7729763984680176	7562419.067239189
1.776710867881775	6968416.218306823
1.7804391384124756	6732805.173553456
1.7841613292694092	6000976.6110613635
1.7878772020339966	5234727.5483682435
1.7915871143341064	4848941.394410179
1.7952908277511597	4703720.072845963
1.7989884614944458	4578790.94826257
1.8026801347732544	3892155.0374934617
1.806365728378296	3328522.39524945
1.8100452423095703	3437857.89110916
1.8137187957763672	3893420.079799839
1.817386507987976	3704470.069114641
1.8210482597351074	3415686.8963183584
1.8247040510177612	3796900.0224628886
1.828354001045227	3722201.756515585
1.8319982290267944	3221852.4587511905
1.8356364965438843	2868488.668922989
1.8392690420150757	2755155.015705302
1.8428958654403687	2838701.0429932917
1.8465168476104736	2733547.0941694668
1.8501322269439697	2708558.4473467246
1.8537418842315674	2748562.9366947557
1.8573459386825562	2369706.9587008944
1.860944390296936	1968093.5177446692
1.864537239074707	1868753.4887043722
1.8681244850158691	1866244.4541679306
1.871706247329712	2003343.454794651
1.8752825260162354	2416633.326869247
1.8788533210754395	3091447.886885305
1.8824186325073242	3766344.5696338415
1.8859784603118896	4118998.4261637763
1.8895330429077148	4153874.5206398284
1.8930821418762207	4346398.200706857
1.8966259956359863	4648884.78712875
1.9001644849777222	4482292.532484529
1.9036977291107178	4246767.653146893
1.9072256088256836	4423759.442750598
1.9107483625411987	4453311.40725157
1.9142658710479736	4331844.506910368
1.9177782535552979	4450329.466759098
1.9212853908538818	4264883.261324633
1.9247875213623047	3882947.449191933
1.9282845258712769	3581130.31020122
1.9317764043807983	3183123.1968791955
1.9352631568908691	2831270.369990057
1.9387450218200684	2560059.902575443
1.942221760749817	2615817.480610263
1.9456936120986938	2905015.364236976
1.9491604566574097	3093390.4233473544
1.952622413635254	3049539.2285459787
1.956079363822937	2898125.5129081914
1.959531545639038	3045806.978414916
1.962978720664978	3288139.576382188
1.966421127319336	3510504.4305320703
1.9698586463928223	3747828.6628307397
1.9732913970947266	3830235.2321471935
1.9767193794250488	3962794.762110027
1.9801424741744995	4123911.6821937454
1.9835609197616577	4347566.839647866
1.9869745969772339	4514780.694458371
1.990383505821228	4520233.68431363
1.9937876462936401	4834658.814223857
1.9971871376037598	5015459.481541304
2.000581979751587	5008376.871238935
2.003972291946411	5168505.919873868
2.007357597351074	5290769.477568348
2.0107386112213135	5562653.01418254
2.0141148567199707	5809006.028673119
2.017486572265625	5767998.898347951
2.0208535194396973	6142857.138645769
2.0242159366607666	6720363.994983616
2.027573823928833	6752707.067892087
2.0309269428253174	6961385.586112295
2.034275770187378	7679806.03402222
2.0376198291778564	8131488.533781974
2.040959596633911	8221921.126382438
2.044294595718384	8676580.5762865
2.0476250648498535	9307117.646966876
2.0509510040283203	9297990.153581664
2.054272413253784	9320847.8556929
2.057589530944824	10151358.75187256
2.0609018802642822	10533767.45678343
2.0642096996307373	10369541.818617959
2.0675129890441895	10613219.092240104
2.0708119869232178	10804961.43871995
2.074106216430664	10906300.102302028
2.0773961544036865	11178061.124112178
2.080681324005127	11364180.761935357
2.0839622020721436	11424765.226807432
2.087238311767578	11537147.703038607
2.090510129928589	11730197.409653895
2.0937774181365967	11824983.748559136
2.0970399379730225	11902526.824147169
2.1002981662750244	12031357.025136782
2.1035518646240234	12057271.956771303
2.1068007946014404	12104332.267573224
2.1100454330444336	12218657.342938276
2.1132853031158447	12321496.857260745
2.116520881652832	12196172.137549968
2.1197516918182373	12096813.74733929
2.1229779720306396	12347043.487217048
2.12619948387146	12443334.177625991
2.1294167041778564	12266471.34948044
2.132629156112671	12322823.503019288
2.1358368396759033	12429517.563287592
2.139039993286133	12179489.73279991
2.1422386169433594	11985215.85713872
2.145432472229004	12077629.998808054
2.1486217975616455	12035421.619632233
2.151806354522705	11796869.765381131
2.1549863815307617	11713655.138869237
2.1581614017486572	11725097.033147063
2.16133189201355	11640374.130033357
2.1644976139068604	11513770.254005805
2.167658567428589	11441058.795136634
2.1708147525787354	11373493.174585944
2.173966407775879	11185856.78211997
2.1771130561828613	10938139.653688831
2.1802549362182617	10827318.747787723
2.183391809463501	10716035.498749467
2.1865241527557373	10454479.753682202
2.1896514892578125	10248034.953213757
2.1927738189697266	9940407.640419198
2.1958916187286377	9295417.93257148
2.1990041732788086	8598124.263505151
2.2021119594573975	8107310.317040384
2.2052149772644043	7855014.972026469
2.208312749862671	7964664.785759519
2.2114057540893555	8317698.014931653
2.214493751525879	8525462.287501397
2.217576742172241	8391795.122643227
2.2206547260284424	8146753.093928872
2.2237277030944824	8107476.366368152
2.2267956733703613	8068471.008068803
2.2298583984375	7978214.402968495
2.2329163551330566	7908601.662579554
2.235969066619873	7750591.980924526
2.2390167713165283	7559395.372388462
2.2420592308044434	7281026.797691668
2.2450966835021973	7000949.52729504
2.248128890991211	6899611.051696561
2.2511560916900635	6941762.581969282
2.254178285598755	6906268.0007053325
2.257194995880127	6821730.973193427
2.260206699371338	6844806.965999238
2.2632133960723877	6772420.564590904
2.266214609146118	6560160.3241046695
2.2692108154296875	6407585.986414025
2.2722020149230957	6444342.733654425
2.2751877307891846	6548763.220957266
2.278168201446533	6492693.88021476
2.2811436653137207	6303384.581680992
2.284113883972168	6159814.119610742
2.287078857421875	6088975.519366697
2.290038824081421	5781480.339747602
2.2929933071136475	5039136.286502339
2.295942783355713	4287715.025250904
2.298887014389038	4015154.146358846
2.301826238632202	4062425.8370047067
2.304760217666626	4107576.5330217434
2.3076889514923096	4111662.6397848893
2.310612440109253	4062575.2379531856
2.3135311603546143	3901905.3641250315
2.3164443969726562	3530473.2787182066
2.319352865219116	3184040.6537335967
2.322256088256836	3060203.693265026
2.3251543045043945	3098620.0937617547
2.328047275543213	3235279.8792668963
2.330935478210449	3344437.7196988063
2.3338186740875244	3436256.0643480783
2.3366971015930176	3503878.4764789105
2.3395702838897705	3543692.347872842
2.3424389362335205	3653299.6634721817
2.3453025817871094	3845291.15806758
2.348161458969116	3932401.303054978
2.351015567779541	3752500.9659595317
2.353865146636963	3663823.277400187
2.3567099571228027	3739156.2320585214
2.3595502376556396	3700649.9539433946
2.3623859882354736	3675237.528147236
2.3652172088623047	3695908.7263864656
2.368043899536133	3590709.6029710383
2.370866537094116	3370946.6859486005
2.3736846446990967	3362223.334153456
2.3764986991882324	3455598.1552971946
2.3793084621429443	3453378.813648193
2.3821144104003906	3410738.5555658597
2.384916305541992	3389521.0988545176
2.387714147567749	3563413.693316446
2.3905084133148193	3765769.080006723
2.393299102783203	3817952.4243953237
2.3960859775543213	3875442.3896858282
2.398869514465332	4049165.7261684122
2.4016497135162354	4174833.9874826972
2.4044265747070312	4194232.902216335
2.407200336456299	4048095.1259173634
2.409970998764038	3909058.4902173337
2.4127390384674072	3947210.572818258
2.415503978729248	3879922.209836044
2.418266534805298	3777767.420201243
2.4210267066955566	3907723.7018523063
2.4237842559814453	4032712.9171016123
2.426539897918701	4003571.3565401803
2.429293394088745	4043350.9597117114
2.4320452213287354	3971756.5709289415
2.4347951412200928	3678679.2562334915
2.4375438690185547	3779071.597524515
2.440291166305542	4125538.155837759
2.443037271499634	3943315.0736488616
2.445782423019409	3535532.6836918853
2.4485268592834473	3439078.73600309
2.451270818710327	3337318.1251995442
2.454014539718628	3277188.8104145
2.4567582607269287	3693892.275892301
2.4595019817352295	3834539.724670645
2.4622461795806885	3732057.0219750567
2.4649908542633057	3803409.1724045756
2.4677364826202393	3483201.624380296
2.4704833030700684	3087930.795370897
2.473231554031372	2836302.984848948
2.4759814739227295	2727453.0550412284
2.4787333011627197	2771741.9876060365
