#wavelength	surface_flux
0.6450077295303345	999814193.6951262
0.6472567915916443	1541671864.7222471
0.6494921445846558	1945145992.2183163
0.6517150402069092	2196606109.513621
0.6539263725280762	2427699936.1646557
0.6561272740364075	2535508850.474427
0.6583186388015747	2581644524.6847563
0.6605015397071838	2616248102.9689574
0.6626768708229065	2609438018.354012
0.6648455858230591	2535746107.2897983
0.6670085787773132	2402314321.5174513
0.6691668033599854	2104757772.7013168
0.6713210344314575	1640120136.1813242
0.6734722256660461	1278534834.0515392
0.6756211519241333	1027272183.141672
0.6777685880661011	774135840.7754484
0.6799154281616211	581542354.8788645
0.6820623278617859	453637521.2029089
0.6842101216316223	339156818.308229
0.6863595843315125	241331358.57022825
0.688511312007904	183681137.99355564
0.6906660795211792	177079599.5526179
0.6928245425224304	253801067.7140414
0.6949873566627502	373946101.1901727
0.6971551775932312	430804181.26660573
0.6993286609649658	457883554.90260535
0.7015084028244019	697478266.6012524
0.7036949396133423	1382895916.8103442
0.7058889269828796	2096966168.8524506
0.7080909013748169	2333632428.4473414
0.710301399230957	2308972372.2730546
0.712520956993103	2216550616.8662214
0.7147500514984131	2154817958.6747055
0.7169892191886902	2364286197.2741094
0.7192389369010925	2685640001.872161
0.7214996814727783	2888302145.049234
0.723771870136261	3055662610.189
0.7260559797286987	3161820756.3997493
0.7283523678779602	3207918923.467385
0.7306615710258484	3258936694.5762477
0.7329838871955872	3260679614.785159
0.7353196740150452	3184006699.842008
0.7376693487167358	3091376978.687951
0.7400332689285278	3046364650.4445543
0.7424117922782898	3037440162.057181
0.7448052167892456	3049161172.4083366
0.7472138404846191	3084442800.592054
0.7496379613876343	3132563163.762963
0.7520779371261597	3183418847.6537166
0.7545340061187744	3236688859.243855
0.7570064663887024	3296195967.3496876
0.7594954967498779	3312836605.830077
0.7620013952255249	3070938341.0767493
0.7645244002342224	2228636355.289081
0.7670646905899048	1295358547.606701
0.7696225643157959	1307913388.089401
0.7721980810165405	2286028810.7998347
0.7747915983200073	3291841512.714014
0.7774031162261963	3717969326.2872276
0.7800329327583313	3792357893.978246
0.7826811671257019	3830648688.6030865
0.7853479981422424	3897869645.3305364
0.7880334854125977	3962916075.1677303
0.7907378077507019	4005673748.8440337
0.7934610247612	4029211069.2111983
0.7962033748626709	4071186529.185249
0.7989648580551147	4131148125.063025
0.801745593547821	4170021993.141947
0.8045456409454346	4188698149.4129314
0.8073651194572449	4203546962.0923033
0.8102040886878967	4213907594.103847
0.8130625486373901	4193037703.7908893
0.8159406185150146	3983380549.7713614
0.8188382983207703	3646877494.9383545
0.8217556476593018	3730352741.8661914
0.8246926665306091	4103214194.5703216
0.8276493549346924	4252005154.8431907
0.8306257724761963	4251987495.394431
0.8336219191551208	4217764655.9405646
0.8366377949714661	4133368247.0884113
0.8396733403205872	3996234466.326554
0.8427285552024841	3877166621.7194934
0.8458034992218018	3941823844.1806645
0.8488980531692505	4111848962.643131
0.8520121574401855	4173117733.8704596
0.8551458716392517	4201885031.7891874
0.8582990765571594	4269551705.628159
0.8614717125892639	4282848392.8312526
0.8646637797355652	4205336402.2493267
0.8678751587867737	4123845723.8361044
0.8711057901382446	4126800982.3446393
0.8743556141853333	4196407668.797636
0.87762451171875	4248319265.420747
0.8809124231338501	4259741039.8738356
0.8842192888259888	4265313034.112691
0.8875449895858765	4275313803.356514
0.8908893465995789	4288090735.9356875
0.894252359867096	4312698593.11272
0.8976338505744934	4337078374.945881
0.9010337591171265	4350208876.715603
0.9044519662857056	4354345569.848174
0.9078882932662964	4362243880.07935
0.9113426208496094	4381580983.846439
0.914814829826355	4400442275.076709
0.9183048605918884	4424278185.328876
0.9218124747276306	4479223217.8775215
0.925337553024292	4530339009.996827
0.9288799166679382	4536299440.333967
0.9324395060539246	4528370951.509046
0.9360161423683167	4529571274.70624
0.9396095871925354	4531394997.026528
0.943219780921936	4533099215.869005
0.9468464851379395	4533933139.333414
0.9504896402359009	4522686311.704438
0.9541489481925964	4490921457.174073
0.9578243494033813	4432119265.229623
0.9615156054496765	4284869020.5952783
0.9652225375175476	4103474588.8431916
0.9689450263977051	4051748805.9359264
0.9726828336715698	4112227638.156256
0.9764357805252075	4188065052.6548605
0.9802037477493286	4278577273.5501337
0.983986496925354	4361105462.929418
0.9877838492393494	4264335365.720865
0.9915955662727356	4005154839.5078473
0.9954215884208679	3905925088.9121675
0.9992615580558777	3967820773.6640377
1.0031154155731201	3996084103.6684175
1.0069829225540161	4005603214.7156897
1.0108637809753418	4023219015.0494013
1.0147579908370972	4022124949.1405625
1.018665075302124	4009881059.138657
1.022585153579712	3992249625.195124
1.0265177488327026	3947358425.5491953
1.0304628610610962	3919287746.723732
1.0344202518463135	3924267526.3257723
1.0383895635604858	3935110836.064651
1.0423706769943237	3951137319.379401
1.0463634729385376	3961736060.6163106
1.0503677129745483	3956471837.1266203
1.0543830394744873	3949950888.8982644
1.058409333229065	3945167947.2515574
1.0624464750289917	3940342644.5217247
1.0664942264556885	3932518480.6277337
1.0705522298812866	3926434070.710421
1.0746204853057861	3930490088.054229
1.0786986351013184	3935501668.1868453
1.0827864408493042	3936843449.89311
1.086883783340454	3935292323.6924553
1.0909905433654785	3930714124.6290693
1.0951062440872192	3918850392.7306166
1.0992310047149658	3903897272.691249
1.10336434841156	3891035854.6495824
1.1075061559677124	3878562729.725545
1.1116561889648438	3867028363.089514
1.115814208984375	3859327875.4325294
1.1199802160263062	3852425244.895016
1.124153733253479	3846055214.5117764
1.1283347606658936	3836319243.915092
1.1325229406356812	3799996783.025282
1.1367181539535522	3705334758.6851993
1.1409201622009277	3636183740.830879
1.145128846168518	3691185316.832833
1.1493438482284546	3759773379.5381474
1.1535650491714478	3762106689.156941
1.1577922105789185	3743316038.609911
1.1620250940322876	3721625825.720148
1.1662636995315552	3694857728.6439533
1.170507550239563	3666200033.1673937
1.174756646156311	3633381915.281728
1.1790107488632202	3607749871.276389
1.1832695007324219	3610068467.516523
1.1875330209732056	3610365811.010148
1.191800832748413	3592700515.7688146
1.1960728168487549	3564962406.678832
1.2003488540649414	3547022655.702605
1.2046287059783936	3548144262.414013
1.2089121341705322	3542505480.2503204
1.2131990194320679	3529457102.4839168
1.2174891233444214	3515874238.1605744
1.2217823266983032	3500182871.949866
1.2260783910751343	3484803971.051939
1.230377197265625	3468178296.9556437
1.2346785068511963	3447558695.1041512
1.238982081413269	3421461792.6337113
1.2432878017425537	3396176383.5913677
1.2475954294204712	3379372430.495127
1.2519049644470215	3363209675.9402766
1.256216049194336	3350014624.385796
1.2605286836624146	3339567892.969691
1.2648425102233887	3324396203.871333
1.2691574096679688	3308472512.9622383
1.2734732627868652	3291505581.186011
1.2777899503707886	3270784225.785847
1.2821072340011597	3245370252.352608
1.2864248752593994	3222978830.284005
1.2907428741455078	3207749441.567876
1.2950609922409058	3193445825.4782896
1.2993791103363037	3177291233.6395226
1.303696870803833	3158028467.3164177
1.3080145120620728	3133724584.200407
1.3123314380645752	3107352323.1484494
1.3166478872299194	3085336163.0490746
1.3209635019302368	3063609874.6725497
1.3252781629562378	3031189363.5804396
1.3295916318893433	2967717968.737695
1.3339040279388428	2853715506.2615285
1.3382149934768677	2735488498.6843295
1.3425244092941284	2664369192.0728693
1.3468321561813354	2627097460.4598436
1.3511382341384888	2603785328.503063
1.3554422855377197	2592751576.7768283
1.3597444295883179	2594769682.022466
1.3640443086624146	2603012153.8836136
1.3683418035507202	2608233227.884831
1.3726370334625244	2605792528.0964613
1.3769296407699585	2595103693.0576715
1.381219506263733	2565301571.915538
1.3855066299438477	2519798413.891822
1.3897908926010132	2470316564.7605467
1.3940720558166504	2423806057.532364
1.3983501195907593	2393406814.5216193
1.4026249647140503	2376689038.7697687
1.4068963527679443	2348545263.417599
1.4111642837524414	2300281047.61951
1.4154287576675415	2257380552.387734
1.419689416885376	2228836415.680753
1.4239463806152344	2203365289.3066344
1.4281994104385376	2181914288.3088665
1.4324485063552856	2166212820.2257123
1.436693549156189	2149603747.620711
1.440934419631958	2131789378.6979303
1.4451709985733032	2114713242.1305377
1.449403166770935	2097912292.0725684
1.453631043434143	2081669647.309282
1.4578542709350586	2064564669.3412685
1.4620729684829712	2043073474.5429442
1.4662868976593018	2016904945.3795402
1.4704961776733398	1992573245.423307
1.4747005701065063	1973422568.1916082
1.4788999557495117	1953862251.3721368
1.4830944538116455	1932676472.145238
1.4872838258743286	1913160503.8679953
1.491468071937561	1893980062.4726505
1.4956470727920532	1874960791.1391585
1.4998208284378052	1856067934.997004
1.5039892196655273	1837042502.1125765
1.5081522464752197	1817509071.748861
1.5123097896575928	1797152914.7836819
1.5164618492126465	1776792877.7668126
1.5206083059310913	1757720498.3696394
1.5247491598129272	1738214312.9662478
1.5288842916488647	1717395892.5748587
1.5330137014389038	1697197650.2051604
1.5371372699737549	1677612477.4772272
1.541254997253418	1657499137.2472594
1.545366883277893	1637784750.0877736
1.5494728088378906	1618803669.6299362
1.5535727739334106	1599406884.6828094
1.5576666593551636	1580256959.1625216
1.561754584312439	1561538344.5099
1.5658363103866577	1543035151.7461114
1.5699119567871094	1524683692.728832
1.5739814043045044	1506648806.0452564
1.5780447721481323	1488783706.3199914
1.582101821899414	1470858558.1263666
1.5861525535583496	1452959105.7090914
1.5901970863342285	1435097743.3815389
1.5942351818084717	1417548319.302713
1.5982669591903687	1400492274.4710631
1.6022924184799194	1383415261.3427336
1.606311559677124	1366459063.413008
1.6103241443634033	1349699243.572492
1.6143304109573364	1333200041.6579263
1.6183301210403442	1317107976.150947
1.6223233938217163	1301302986.349157
1.6263102293014526	1285757232.6085758
1.6302905082702637	1270365330.5056984
1.634264349937439	1255264544.0704908
1.638231635093689	1240458599.3761404
1.6421923637390137	1225813061.0702338
1.646146535873413	1211400117.5396712
1.6500942707061768	1197170672.3527498
1.6540353298187256	1183326588.729277
1.6579699516296387	1169728873.3806064
1.661897897720337	1156209114.8293357
1.6658192873001099	1143436201.6260355
1.6697341203689575	1131674367.5896144
1.6736423969268799	1120206659.8667488
1.677544116973877	1108175497.7345955
1.6814392805099487	1095766978.5339026
1.6853278875350952	1083451125.303686
1.6892099380493164	1071235756.00613
1.6930854320526123	1059101697.1915407
1.696954369544983	1047100601.4165273
1.7008168697357178	1035476863.6788944
1.7046726942062378	1023955332.9906566
1.708522081375122	1012126769.1117446
1.712364912033081	1000132700.0691901
1.7162011861801147	988074943.6709491
1.7200311422348022	976726642.27567
1.723854422569275	966130011.6486506
1.7276713848114014	955169955.2140296
1.731481909751892	944017880.0222788
1.7352858781814575	933097310.814422
1.7390835285186768	922086574.0778735
1.7428747415542603	911398445.8717211
1.7466596364974976	900991888.1770555
1.7504380941390991	890188510.8213055
1.7542102336883545	878873449.3156468
1.7579760551452637	868259679.1175613
1.7617355585098267	858825908.8212689
1.7654887437820435	848304071.6397831
1.7692357301712036	836910481.0474353
1.7729763984680176	826863385.2426476
1.776710867881775	817562290.2953763
1.7804391384124756	807610352.1720691
1.7841613292694092	796508188.2754941
1.7878772020339966	787242869.5231841
1.7915871143341064	779824046.2894874
1.7952908277511597	771245059.7956944
1.7989884614944458	761566969.4558561
1.8026801347732544	752671100.3135912
1.806365728378296	746714013.2940732
1.8100452423095703	741374078.8932819
1.8137187957763672	735395577.1641963
1.817386507987976	727536045.1450212
1.8210482597351074	720377236.6891547
1.8247040510177612	717790187.1306418
1.828354001045227	714669700.2606733
1.8319982290267944	709272613.4288859
1.8356364965438843	703030003.5042006
1.8392690420150757	696934071.1130577
1.8428958654403687	690375790.9726248
1.8465168476104736	681870782.1319709
1.8501322269439697	674545128.941341
1.8537418842315674	665920321.5731
1.8573459386825562	653942316.8097497
1.860944390296936	647162170.9601524
1.864537239074707	647279624.9225557
1.8681244850158691	647082544.2724849
1.871706247329712	644022846.8992188
1.8752825260162354	641069798.8839359
1.8788533210754395	640487329.8592288
1.8824186325073242	640399703.5301739
1.8859784603118896	638128413.5785141
1.8895330429077148	633724388.0574913
1.8930821418762207	630080085.2188098
1.8966259956359863	628020230.0473522
1.9001644849777222	624998758.6953145
1.9036977291107178	620348271.7005386
1.9072256088256836	616205464.630828
1.9107483625411987	612845911.9747902
1.9142658710479736	608893538.7615004
1.9177782535552979	603143734.3751202
1.9212853908538818	596365912.6813716
1.9247875213623047	591498911.5429574
1.9282845258712769	586429304.7763604
1.9317764043807983	580056013.9592255
1.9352631568908691	575597324.5361587
1.9387450218200684	570171509.0826108
1.942221760749817	562788167.9849313
1.9456936120986938	556347881.0477165
1.9491604566574097	553895334.3826722
1.952622413635254	552108840.1676356
1.956079363822937	548215942.451196
1.959531545639038	545601184.7813853
1.962978720664978	543506416.1135938
1.966421127319336	541602925.7705197
1.9698586463928223	537957093.5826606
1.9732913970947266	529779231.5218195
1.9767193794250488	518922844.676429
1.9801424741744995	514683488.56789815
1.9835609197616577	518483379.489679
1.9869745969772339	518782792.7297692
1.990383505821228	514286529.87260884
1.9937876462936401	512213290.9276432
1.9971871376037598	510731509.67553145
2.000581979751587	508223005.20209306
2.003972291946411	506792102.0552148
2.007357597351074	503318717.38112724
2.0107386112213135	499013424.77279776
2.0141148567199707	497215977.7603186
2.017486572265625	495232726.3054238
2.0208535194396973	492963288.7735868
2.0242159366607666	490745226.38566005
2.027573823928833	486943767.36734354
2.0309269428253174	484263192.1354726
2.034275770187378	482899156.82627493
2.0376198291778564	480440885.448543
2.040959596633911	477613733.0055245
2.044294595718384	475038288.16047776
2.0476250648498535	472603565.5750442
2.0509510040283203	470135711.0858984
2.054272413253784	467647421.9996324
2.057589530944824	465624505.8788346
2.0609018802642822	462960936.31585854
2.0642096996307373	459820082.6483924
2.0675129890441895	457721350.49396235
2.0708119869232178	455526210.533716
2.074106216430664	452735255.04859185
2.0773961544036865	450372455.0427408
2.080681324005127	448036703.0357889
2.0839622020721436	445406531.1050419
2.087238311767578	442883259.0624126
2.090510129928589	440589871.82551336
2.0937774181365967	438231623.703302
2.0970399379730225	435676121.2386279
2.1002981662750244	433272740.1205298
2.1035518646240234	430939444.73742133
2.1068007946014404	428497660.8520261
2.1100454330444336	426116521.93361944
2.1132853031158447	423854837.91583145
2.116520881652832	421497651.7795324
2.1197516918182373	419144953.468704
2.1229779720306396	416911353.66495824
2.12619948387146	414533337.2701459
2.1294167041778564	412111868.445095
2.132629156112671	409932985.85772955
2.1358368396759033	407776503.99004644
2.139039993286133	405448462.80274695
2.1422386169433594	403255494.4114651
2.145432472229004	401226471.84118015
2.1486217975616455	398981512.31833386
2.151806354522705	396660043.352216
2.1549863815307617	394544973.00881577
2.1581614017486572	392480899.77632064
2.16133189201355	390361310.8066899
2.1644976139068604	388277120.4163249
2.167658567428589	386271540.5706972
2.1708147525787354	384232395.1813629
2.173966407775879	382146646.22337055
2.1771130561828613	380100656.518268
2.1802549362182617	378135966.9300254
2.183391809463501	376201256.7957988
2.1865241527557373	374254948.0567004
2.1896514892578125	372340987.0854361
2.1927738189697266	370432284.6919085
2.1958916187286377	368535113.44798577
2.1990041732788086	366659310.8872295
2.2021119594573975	364765150.21984786
2.2052149772644043	362922140.4418732
2.208312749862671	361154089.8448154
2.2114057540893555	359409480.0143367
2.214493751525879	357670901.753346
2.217576742172241	355890662.5993248
2.2206547260284424	354145650.0332121
2.2237277030944824	352543820.1463744
2.2267956733703613	350923463.0403019
2.2298583984375	349248723.93619645
2.2329163551330566	347578300.29198587
2.235969066619873	345907055.66946626
2.2390167713165283	344310527.05888134
2.2420592308044434	342725225.1238664
2.2450966835021973	341155490.5587694
2.248128890991211	339619393.5930321
2.2511560916900635	338088821.9759097
2.254178285598755	336612512.6412905
2.257194995880127	335185765.9160346
2.260206699371338	333747483.6380072
2.2632133960723877	332258332.2024297
2.266214609146118	330826692.7167619
2.2692108154296875	329445498.9967231
2.2722020149230957	328071522.52005595
2.2751877307891846	326767495.0394426
2.278168201446533	325398007.435315
2.2811436653137207	323981485.1830245
2.284113883972168	322706702.5038043
2.287078857421875	321510019.1159633
2.290038824081421	320127049.300786
2.2929933071136475	318478361.5368193
2.295942783355713	316936671.40783924
2.298887014389038	315667075.7571696
2.301826238632202	314516281.7142406
2.304760217666626	313391698.2273322
2.3076889514923096	312197278.20510316
2.310612440109253	310989668.9776924
2.3135311603546143	309803655.2639255
2.3164443969726562	308677117.6537242
2.319352865219116	307648592.4670699
2.322256088256836	306512880.19482756
2.3251543045043945	305369431.62388057
2.328047275543213	304332677.02033865
2.330935478210449	303280469.388308
2.3338186740875244	302319812.0428591
2.3366971015930176	301402387.05043906
2.3395702838897705	300346864.24730563
2.3424389362335205	299241792.8899346
2.3453025817871094	298316646.5680658
2.348161458969116	297547806.7945067
2.351015567779541	296524948.7098873
2.353865146636963	295429080.2213821
2.3567099571228027	294480497.3557261
2.3595502376556396	293536343.2667847
2.3623859882354736	292828529.77386886
2.3652172088623047	292122789.8395708
2.368043899536133	291197909.49777406
2.370866537094116	290433847.58170164
2.3736846446990967	289730322.599035
2.3764986991882324	288806684.24550754
2.3793084621429443	287815447.7659799
2.3821144104003906	286808430.53473884
2.384916305541992	285791654.79646343
2.387714147567749	284972566.1696756
2.3905084133148193	284541712.01435107
2.393299102783203	284122431.1885596
2.3960859775543213	283431157.9846577
2.398869514465332	282605160.1713112
2.4016497135162354	281609386.78752565
2.4044265747070312	280627988.86118126
2.407200336456299	279739845.8750444
2.409970998764038	278847530.99276274
2.4127390384674072	277942798.3757067
2.415503978729248	277147864.3028687
2.418266534805298	276359288.12281215
2.4210267066955566	275394185.8092661
2.4237842559814453	274398328.20268315
2.426539897918701	273421141.7498355
2.429293394088745	272642609.48215896
2.4320452213287354	271755959.2881474
2.4347951412200928	270264328.7398549
2.4375438690185547	269255079.5395945
2.440291166305542	268823654.8143887
2.443037271499634	267648255.38805088
2.445782423019409	266437504.46655405
2.4485268592834473	265691217.9906955
2.451270818710327	263582438.69490442
2.454014539718628	261541064.68152887
2.4567582607269287	262664901.00928465
2.4595019817352295	261548355.93833396
2.4622461795806885	259813665.6948608
2.4649908542633057	260326934.18575892
2.4677364826202393	258263398.36675373
2.4704833030700684	256807094.07978025
2.473231554031372	254940201.8693084
2.4759814739227295	253285107.87010044
2.4787333011627197	254013222.88362402
2.481487512588501	253414895.26925388
